# time  numeric_E1  refQ6_E1  refQ12_E1  refQ24_E1  refQ48_E1  refQ96_E1  errQ6_E1  errQ12_E1  errQ24_E1  errQ48_E1  errQ96_E1  deltaQuadratureQ6_Q96_E1  deltaQuadratureQ12_Q96_E1  deltaQuadratureQ24_Q96_E1  deltaQuadratureQ48_Q96_E1  numeric_E2  refQ6_E2  refQ12_E2  refQ24_E2  refQ48_E2  refQ96_E2  errQ6_E2  errQ12_E2  errQ24_E2  errQ48_E2  errQ96_E2  deltaQuadratureQ6_Q96_E2  deltaQuadratureQ12_Q96_E2  deltaQuadratureQ24_Q96_E2  deltaQuadratureQ48_Q96_E2  numeric_E3  refQ6_E3  refQ12_E3  refQ24_E3  refQ48_E3  refQ96_E3  errQ6_E3  errQ12_E3  errQ24_E3  errQ48_E3  errQ96_E3  deltaQuadratureQ6_Q96_E3  deltaQuadratureQ12_Q96_E3  deltaQuadratureQ24_Q96_E3  deltaQuadratureQ48_Q96_E3  numeric_E4  refQ6_E4  refQ12_E4  refQ24_E4  refQ48_E4  refQ96_E4  errQ6_E4  errQ12_E4  errQ24_E4  errQ48_E4  errQ96_E4  deltaQuadratureQ6_Q96_E4  deltaQuadratureQ12_Q96_E4  deltaQuadratureQ24_Q96_E4  deltaQuadratureQ48_Q96_E4  numeric_E5  refQ6_E5  refQ12_E5  refQ24_E5  refQ48_E5  refQ96_E5  errQ6_E5  errQ12_E5  errQ24_E5  errQ48_E5  errQ96_E5  deltaQuadratureQ6_Q96_E5  deltaQuadratureQ12_Q96_E5  deltaQuadratureQ24_Q96_E5  deltaQuadratureQ48_Q96_E5
1.40174000e-04  -1.47575823e-11  1.50138083e-17  -6.03196890e-18  1.47629504e-18  3.35574240e-18  3.50037588e-18  1.47575973e-11  1.47575763e-11  1.47575838e-11  1.47575857e-11  1.47575858e-11  1.15134324e-17  9.53234479e-18  2.02408084e-18  1.44633486e-19  -4.06260789e-12  -1.69068597e-17  6.64266007e-18  -1.27850970e-18  -3.09422934e-18  -3.44254212e-18  4.06259098e-12  4.06261453e-12  4.06260661e-12  4.06260479e-12  4.06260445e-12  1.34643175e-17  1.00852022e-17  2.16403242e-18  3.48312786e-19  -2.29342718e-03  -2.87208345e-03  -2.29420990e-03  -2.29490692e-03  -2.29490692e-03  -2.29490692e-03  5.78656266e-04  7.82720019e-07  1.47973744e-06  1.47973485e-06  1.47973485e-06  5.77176531e-04  6.97014832e-07  2.59014902e-12  1.17961196e-16  3.54101860e-03  3.57705807e-03  3.54699625e-03  3.54700251e-03  3.54700251e-03  3.54700251e-03  3.60394758e-05  5.97764736e-06  5.98391375e-06  5.98391375e-06  5.98391375e-06  3.00555620e-05  6.26638841e-09  1.68701858e-16  4.85722573e-17  -1.04756642e-03  -1.07946976e-03  -1.04948185e-03  -1.04948188e-03  -1.04948188e-03  -1.04948188e-03  3.19033422e-05  1.91543386e-06  1.91546371e-06  1.91546371e-06  1.91546371e-06  2.99878785e-05  2.98472156e-11  1.86482774e-17  4.33680869e-19
2.80348000e-04  -2.95140145e-11  1.50148604e-17  -6.03239159e-18  1.47639849e-18  3.35597755e-18  3.50062117e-18  2.95140295e-11  2.95140085e-11  2.95140160e-11  2.95140179e-11  2.95140180e-11  1.15142392e-17  9.53301276e-18  2.02422268e-18  1.44643621e-19  -8.13898948e-12  -1.69080444e-17  6.64312555e-18  -1.27859929e-18  -3.09444616e-18  -3.44278336e-18  8.13897257e-12  8.13899613e-12  8.13898820e-12  8.13898639e-12  8.13898604e-12  1.34652610e-17  1.00859089e-17  2.16418406e-18  3.48337194e-19  -2.29358808e-03  -2.87228471e-03  -2.29437067e-03  -2.29506773e-03  -2.29506773e-03  -2.29506773e-03  5.78696627e-04  7.82587089e-07  1.47965335e-06  1.47965076e-06  1.47965076e-06  5.77216976e-04  6.97063675e-07  2.59033073e-12  1.17961196e-16  3.54126715e-03  3.57730874e-03  3.54724480e-03  3.54725107e-03  3.54725107e-03  3.54725107e-03  3.60415838e-05  5.97764886e-06  5.98391568e-06  5.98391568e-06  5.98391568e-06  3.00576681e-05  6.26682752e-09  1.68701858e-16  4.85722573e-17  -1.04763995e-03  -1.07954541e-03  -1.04955540e-03  -1.04955543e-03  -1.04955543e-03  -1.04955543e-03  3.19054595e-05  1.91544977e-06  1.91547962e-06  1.91547962e-06  1.91547962e-06  2.99899799e-05  2.98493073e-11  1.86482774e-17  4.33680869e-19
4.20522000e-04  -4.42670171e-11  1.50159124e-17  -6.03281425e-18  1.47650194e-18  3.35621269e-18  3.50086644e-18  4.42670322e-11  4.42670111e-11  4.42670186e-11  4.42670205e-11  4.42670206e-11  1.15150459e-17  9.53368069e-18  2.02436450e-18  1.44653755e-19  -1.22335926e-11  -1.69092291e-17  6.64359100e-18  -1.27868888e-18  -3.09466298e-18  -3.44302458e-18  1.22335757e-11  1.22335993e-11  1.22335913e-11  1.22335895e-11  1.22335892e-11  1.34662045e-17  1.00866156e-17  2.16433570e-18  3.48361600e-19  -2.29374897e-03  -2.87248595e-03  -2.29453142e-03  -2.29522854e-03  -2.29522854e-03  -2.29522854e-03  5.78736984e-04  7.82452675e-07  1.47956778e-06  1.47956519e-06  1.47956519e-06  5.77257419e-04  6.97112514e-07  2.59051244e-12  1.17961196e-16  3.54151569e-03  3.57755938e-03  3.54749334e-03  3.54749961e-03  3.54749961e-03  3.54749961e-03  3.60436898e-05  5.97764839e-06  5.98391565e-06  5.98391565e-06  5.98391565e-06  3.00597741e-05  6.26726661e-09  1.68701858e-16  4.85722573e-17  -1.04771347e-03  -1.07962104e-03  -1.04962893e-03  -1.04962896e-03  -1.04962896e-03  -1.04962896e-03  3.19075760e-05  1.91546506e-06  1.91549492e-06  1.91549492e-06  1.91549492e-06  2.99920811e-05  2.98513985e-11  1.86482774e-17  4.33680869e-19
5.60696000e-04  -5.90190084e-11  1.50169643e-17  -6.03323688e-18  1.47660537e-18  3.35644780e-18  3.50111169e-18  5.90190234e-11  5.90190024e-11  5.90190099e-11  5.90190118e-11  5.90190119e-11  1.15158526e-17  9.53434857e-18  2.02450632e-18  1.44663889e-19  -1.63479508e-11  -1.69104136e-17  6.64405642e-18  -1.27877846e-18  -3.09487977e-18  -3.44326578e-18  1.63479339e-11  1.63479574e-11  1.63479495e-11  1.63479477e-11  1.63479473e-11  1.34671479e-17  1.00873222e-17  2.16448732e-18  3.48386005e-19  -2.29390985e-03  -2.87268719e-03  -2.29469217e-03  -2.29538933e-03  -2.29538933e-03  -2.29538933e-03  5.78777338e-04  7.82317585e-07  1.47948153e-06  1.47947894e-06  1.47947894e-06  5.77297859e-04  6.97161351e-07  2.59069372e-12  1.17961196e-16  3.54176421e-03  3.57781001e-03  3.54774186e-03  3.54774813e-03  3.54774813e-03  3.54774813e-03  3.60457949e-05  5.97764724e-06  5.98391494e-06  5.98391494e-06  5.98391494e-06  3.00618800e-05  6.26770566e-09  1.68701858e-16  4.85722573e-17  -1.04778699e-03  -1.07969668e-03  -1.04970247e-03  -1.04970250e-03  -1.04970250e-03  -1.04970250e-03  3.19096922e-05  1.91548011e-06  1.91550997e-06  1.91550997e-06  1.91550997e-06  2.99941822e-05  2.98534899e-11  1.86482774e-17  4.33680869e-19
7.00870000e-04  -7.37676552e-11  1.50180162e-17  -6.03365948e-18  1.47670880e-18  3.35668291e-18  3.50135693e-18  7.37676702e-11  7.37676491e-11  7.37676567e-11  7.37676585e-11  7.37676587e-11  1.15166593e-17  9.53501641e-18  2.02464813e-18  1.44674022e-19  -2.04817552e-11  -1.69115981e-17  6.64452180e-18  -1.27886803e-18  -3.09509655e-18  -3.44350696e-18  2.04817383e-11  2.04817618e-11  2.04817539e-11  2.04817521e-11  2.04817517e-11  1.34680912e-17  1.00880288e-17  2.16463893e-18  3.48410407e-19  -2.29407072e-03  -2.87288841e-03  -2.29485290e-03  -2.29555011e-03  -2.29555011e-03  -2.29555011e-03  5.78817688e-04  7.82182095e-07  1.47939487e-06  1.47939228e-06  1.47939228e-06  5.77338296e-04  6.97210184e-07  2.59087500e-12  1.18394877e-16  3.54201272e-03  3.57806061e-03  3.54799036e-03  3.54799663e-03  3.54799663e-03  3.54799663e-03  3.60478996e-05  5.97764584e-06  5.98391398e-06  5.98391398e-06  5.98391398e-06  3.00639857e-05  6.26814469e-09  1.68701858e-16  4.85722573e-17  -1.04786050e-03  -1.07977231e-03  -1.04977599e-03  -1.04977602e-03  -1.04977602e-03  -1.04977602e-03  3.19118081e-05  1.91549505e-06  1.91552490e-06  1.91552490e-06  1.91552490e-06  2.99962832e-05  2.98555809e-11  1.86482774e-17  4.33680869e-19
8.41044000e-04  -8.85137970e-11  1.50190680e-17  -6.03408205e-18  1.47681223e-18  3.35691800e-18  3.50160215e-18  8.85138120e-11  8.85137910e-11  8.85137985e-11  8.85138003e-11  8.85138005e-11  1.15174658e-17  9.53568420e-18  2.02478992e-18  1.44684155e-19  -2.46362514e-11  -1.69127825e-17  6.64498716e-18  -1.27895760e-18  -3.09531332e-18  -3.44374813e-18  2.46362345e-11  2.46362580e-11  2.46362501e-11  2.46362483e-11  2.46362479e-11  1.34690344e-17  1.00887353e-17  2.16479053e-18  3.48434809e-19  -2.29423157e-03  -2.87308961e-03  -2.29501362e-03  -2.29571088e-03  -2.29571088e-03  -2.29571088e-03  5.78858035e-04  7.82046295e-07  1.47930790e-06  1.47930531e-06  1.47930531e-06  5.77378730e-04  6.97259013e-07  2.59105671e-12  1.17961196e-16  3.54226120e-03  3.57831121e-03  3.54823885e-03  3.54824511e-03  3.54824511e-03  3.54824511e-03  3.60500041e-05  5.97764434e-06  5.98391292e-06  5.98391292e-06  5.98391292e-06  3.00660912e-05  6.26858368e-09  1.68701858e-16  4.85722573e-17  -1.04793400e-03  -1.07984793e-03  -1.04984951e-03  -1.04984954e-03  -1.04984954e-03  -1.04984954e-03  3.19139237e-05  1.91550991e-06  1.91553977e-06  1.91553977e-06  1.91553977e-06  2.99983840e-05  2.98576719e-11  1.86482774e-17  4.33680869e-19
9.81218000e-04  -1.03257658e-10  1.50201197e-17  -6.03450459e-18  1.47691564e-18  3.35715307e-18  3.50184735e-18  1.03257673e-10  1.03257652e-10  1.03257659e-10  1.03257661e-10  1.03257661e-10  1.15182724e-17  9.53635194e-18  2.02493171e-18  1.44694286e-19  -2.88105269e-11  -1.69139669e-17  6.64545248e-18  -1.27904716e-18  -3.09553007e-18  -3.44398928e-18  2.88105100e-11  2.88105335e-11  2.88105256e-11  2.88105238e-11  2.88105234e-11  1.34699776e-17  1.00894418e-17  2.16494212e-18  3.48459208e-19  -2.29439242e-03  -2.87329080e-03  -2.29517433e-03  -2.29587164e-03  -2.29587164e-03  -2.29587164e-03  5.78898379e-04  7.81910213e-07  1.47922064e-06  1.47921805e-06  1.47921805e-06  5.77419161e-04  6.97307839e-07  2.59123799e-12  1.17961196e-16  3.54250967e-03  3.57856178e-03  3.54848731e-03  3.54849358e-03  3.54849358e-03  3.54849358e-03  3.60521084e-05  5.97764278e-06  5.98391180e-06  5.98391180e-06  5.98391180e-06  3.00681966e-05  6.26902264e-09  1.68701858e-16  4.85722573e-17  -1.04800751e-03  -1.07992354e-03  -1.04992303e-03  -1.04992306e-03  -1.04992306e-03  -1.04992306e-03  3.19160392e-05  1.91552471e-06  1.91555457e-06  1.91555457e-06  1.91555457e-06  3.00004846e-05  2.98597627e-11  1.86482774e-17  4.33680869e-19
1.12139200e-03  -1.17999078e-10  1.50211713e-17  -6.03492710e-18  1.47701905e-18  3.35738812e-18  3.50209254e-18  1.17999093e-10  1.17999071e-10  1.17999079e-10  1.17999081e-10  1.17999081e-10  1.15190788e-17  9.53701964e-18  2.02507349e-18  1.44704417e-19  -3.30046823e-11  -1.69151511e-17  6.64591776e-18  -1.27913671e-18  -3.09574681e-18  -3.44423041e-18  3.30046654e-11  3.30046890e-11  3.30046810e-11  3.30046792e-11  3.30046789e-11  1.34709207e-17  1.00901482e-17  2.16509370e-18  3.48483606e-19  -2.29455325e-03  -2.87349198e-03  -2.29533503e-03  -2.29603239e-03  -2.29603239e-03  -2.29603239e-03  5.78938720e-04  7.81773861e-07  1.47913311e-06  1.47913052e-06  1.47913052e-06  5.77459590e-04  6.97356662e-07  2.59141970e-12  1.17961196e-16  3.54275812e-03  3.57881234e-03  3.54873576e-03  3.54874203e-03  3.54874203e-03  3.54874203e-03  3.60542125e-05  5.97764117e-06  5.98391063e-06  5.98391063e-06  5.98391063e-06  3.00703019e-05  6.26946157e-09  1.68701858e-16  4.85722573e-17  -1.04808100e-03  -1.07999916e-03  -1.04999654e-03  -1.04999657e-03  -1.04999657e-03  -1.04999657e-03  3.19181545e-05  1.91553946e-06  1.91556932e-06  1.91556932e-06  1.91556932e-06  3.00025851e-05  2.98618532e-11  1.88651178e-17  4.33680869e-19
1.26156600e-03  -1.32737465e-10  1.50222229e-17  -6.03534958e-18  1.47712245e-18  3.35762316e-18  3.50233770e-18  1.32737480e-10  1.32737459e-10  1.32737467e-10  1.32737468e-10  1.32737469e-10  1.15198852e-17  9.53768729e-18  2.02521526e-18  1.44714547e-19  -3.72193318e-11  -1.69163353e-17  6.64638302e-18  -1.27922626e-18  -3.09596353e-18  -3.44447153e-18  3.72193149e-11  3.72193384e-11  3.72193305e-11  3.72193287e-11  3.72193283e-11  1.34718638e-17  1.00908545e-17  2.16524527e-18  3.48508002e-19  -2.29471408e-03  -2.87369314e-03  -2.29549572e-03  -2.29619312e-03  -2.29619312e-03  -2.29619312e-03  5.78979058e-04  7.81637243e-07  1.47904532e-06  1.47904272e-06  1.47904272e-06  5.77500015e-04  6.97405481e-07  2.59160098e-12  1.17961196e-16  3.54300656e-03  3.57906287e-03  3.54898420e-03  3.54899047e-03  3.54899047e-03  3.54899047e-03  3.60563164e-05  5.97763953e-06  5.98390943e-06  5.98390943e-06  5.98390943e-06  3.00724070e-05  6.26990047e-09  1.69135539e-16  4.90059382e-17  -1.04815449e-03  -1.08007476e-03  -1.05007005e-03  -1.05007008e-03  -1.05007008e-03  -1.05007008e-03  3.19202695e-05  1.91555415e-06  1.91558401e-06  1.91558401e-06  1.91558401e-06  3.00046855e-05  2.98639438e-11  1.86482774e-17  4.33680869e-19
1.40174000e-03  -1.47473651e-10  1.50232744e-17  -6.03577203e-18  1.47722584e-18  3.35785818e-18  3.50258285e-18  1.47473666e-10  1.47473645e-10  1.47473653e-10  1.47473655e-10  1.47473655e-10  1.15206916e-17  9.53835489e-18  2.02535701e-18  1.44724677e-19  -4.14533928e-11  -1.69175194e-17  6.64684824e-18  -1.27931580e-18  -3.09618023e-18  -3.44471263e-18  4.14533759e-11  4.14533994e-11  4.14533915e-11  4.14533897e-11  4.14533894e-11  1.34728067e-17  1.00915609e-17  2.16539683e-18  3.48532396e-19  -2.29487489e-03  -2.87389428e-03  -2.29565639e-03  -2.29635385e-03  -2.29635385e-03  -2.29635385e-03  5.79019393e-04  7.81500359e-07  1.47895725e-06  1.47895466e-06  1.47895466e-06  5.77540438e-04  6.97454297e-07  2.59178269e-12  1.17961196e-16  3.54325497e-03  3.57931339e-03  3.54923261e-03  3.54923888e-03  3.54923888e-03  3.54923888e-03  3.60584201e-05  5.97763786e-06  5.98390820e-06  5.98390820e-06  5.98390820e-06  3.00745119e-05  6.27033934e-09  1.68701858e-16  4.85722573e-17  -1.04822798e-03  -1.08015036e-03  -1.05014355e-03  -1.05014358e-03  -1.05014358e-03  -1.05014358e-03  3.19223844e-05  1.91556879e-06  1.91559865e-06  1.91559865e-06  1.91559865e-06  3.00067857e-05  2.98660341e-11  1.88651178e-17  4.33680869e-19
1.54191400e-03  -1.62207371e-10  1.50243258e-17  -6.03619446e-18  1.47732923e-18  3.35809318e-18  3.50282799e-18  1.62207386e-10  1.62207365e-10  1.62207372e-10  1.62207374e-10  1.62207374e-10  1.15214979e-17  9.53902245e-18  2.02549876e-18  1.44734805e-19  -4.57080380e-11  -1.69187034e-17  6.64731343e-18  -1.27940533e-18  -3.09639693e-18  -3.44495371e-18  4.57080211e-11  4.57080447e-11  4.57080368e-11  4.57080350e-11  4.57080346e-11  1.34737496e-17  1.00922671e-17  2.16554838e-18  3.48556788e-19  -2.29503569e-03  -2.87409542e-03  -2.29581706e-03  -2.29651456e-03  -2.29651456e-03  -2.29651456e-03  5.79059725e-04  7.81363209e-07  1.47886891e-06  1.47886632e-06  1.47886632e-06  5.77580858e-04  6.97503109e-07  2.59196354e-12  1.18394877e-16  3.54350337e-03  3.57956390e-03  3.54948101e-03  3.54948728e-03  3.54948728e-03  3.54948728e-03  3.60605236e-05  5.97763615e-06  5.98390693e-06  5.98390693e-06  5.98390693e-06  3.00766167e-05  6.27077818e-09  1.68701858e-16  4.85722573e-17  -1.04830146e-03  -1.08022596e-03  -1.05021704e-03  -1.05021707e-03  -1.05021707e-03  -1.05021707e-03  3.19244990e-05  1.91558337e-06  1.91561324e-06  1.91561324e-06  1.91561324e-06  3.00088858e-05  2.98681242e-11  1.88651178e-17  4.33680869e-19
1.68208800e-03  -1.76938729e-10  1.50253772e-17  -6.03661685e-18  1.47743261e-18  3.35832817e-18  3.50307310e-18  1.76938744e-10  1.76938723e-10  1.76938731e-10  1.76938733e-10  1.76938733e-10  1.15223041e-17  9.53968995e-18  2.02564050e-18  1.44744934e-19  -4.99819804e-11  -1.69198873e-17  6.64777859e-18  -1.27949486e-18  -3.09661360e-18  -3.44519478e-18  4.99819634e-11  4.99819870e-11  4.99819791e-11  4.99819773e-11  4.99819769e-11  1.34746925e-17  1.00929734e-17  2.16569992e-18  3.48581179e-19  -2.29519648e-03  -2.87429654e-03  -2.29597771e-03  -2.29667526e-03  -2.29667526e-03  -2.29667526e-03  5.79100053e-04  7.81225797e-07  1.47878031e-06  1.47877771e-06  1.47877771e-06  5.77621275e-04  6.97551918e-07  2.59214525e-12  1.17961196e-16  3.54375176e-03  3.57981438e-03  3.54972939e-03  3.54973566e-03  3.54973566e-03  3.54973566e-03  3.60626270e-05  5.97763440e-06  5.98390562e-06  5.98390562e-06  5.98390562e-06  3.00787214e-05  6.27121699e-09  1.69135539e-16  4.85722573e-17  -1.04837494e-03  -1.08030155e-03  -1.05029053e-03  -1.05029056e-03  -1.05029056e-03  -1.05029056e-03  3.19266135e-05  1.91559791e-06  1.91562778e-06  1.91562778e-06  1.91562778e-06  3.00109857e-05  2.98702146e-11  1.86482774e-17  4.33680869e-19
1.82226200e-03  -1.91667543e-10  1.50264285e-17  -6.03703921e-18  1.47753598e-18  3.35856314e-18  3.50331820e-18  1.91667558e-10  1.91667537e-10  1.91667544e-10  1.91667546e-10  1.91667546e-10  1.15231103e-17  9.54035742e-18  2.02578223e-18  1.44755061e-19  -5.42764132e-11  -1.69210711e-17  6.64824371e-18  -1.27958438e-18  -3.09683026e-18  -3.44543583e-18  5.42763963e-11  5.42764199e-11  5.42764119e-11  5.42764101e-11  5.42764098e-11  1.34756353e-17  1.00936795e-17  2.16585145e-18  3.48605568e-19  -2.29535726e-03  -2.87449764e-03  -2.29613835e-03  -2.29683596e-03  -2.29683595e-03  -2.29683595e-03  5.79140379e-04  7.81088118e-07  1.47869143e-06  1.47868884e-06  1.47868884e-06  5.77661690e-04  6.97600723e-07  2.59232653e-12  1.17961196e-16  3.54400012e-03  3.58006485e-03  3.54997775e-03  3.54998403e-03  3.54998403e-03  3.54998403e-03  3.60647302e-05  5.97763262e-06  5.98390428e-06  5.98390428e-06  5.98390428e-06  3.00808259e-05  6.27165577e-09  1.68701858e-16  4.85722573e-17  -1.04844841e-03  -1.08037714e-03  -1.05036402e-03  -1.05036405e-03  -1.05036405e-03  -1.05036405e-03  3.19287277e-05  1.91561239e-06  1.91564226e-06  1.91564226e-06  1.91564226e-06  3.00130855e-05  2.98723045e-11  1.86482774e-17  4.33680869e-19
1.96243600e-03  -2.06394579e-10  1.50274797e-17  -6.03746155e-18  1.47763934e-18  3.35879810e-18  3.50356328e-18  2.06394594e-10  2.06394572e-10  2.06394580e-10  2.06394582e-10  2.06394582e-10  1.15239164e-17  9.54102483e-18  2.02592394e-18  1.44765188e-19  -5.85900044e-11  -1.69222549e-17  6.64870880e-18  -1.27967390e-18  -3.09704691e-18  -3.44567686e-18  5.85899875e-11  5.85900110e-11  5.85900031e-11  5.85900013e-11  5.85900009e-11  1.34765780e-17  1.00943857e-17  2.16600296e-18  3.48629956e-19  -2.29551803e-03  -2.87469873e-03  -2.29629898e-03  -2.29699664e-03  -2.29699663e-03  -2.29699663e-03  5.79180701e-04  7.80950175e-07  1.47860229e-06  1.47859970e-06  1.47859970e-06  5.77702101e-04  6.97649525e-07  2.59250781e-12  1.17961196e-16  3.54424847e-03  3.58031530e-03  3.55022610e-03  3.55023237e-03  3.55023237e-03  3.55023237e-03  3.60668332e-05  5.97763081e-06  5.98390290e-06  5.98390290e-06  5.98390290e-06  3.00829303e-05  6.27209451e-09  1.69135539e-16  4.85722573e-17  -1.04852187e-03  -1.08045272e-03  -1.05043750e-03  -1.05043753e-03  -1.05043753e-03  -1.05043753e-03  3.19308418e-05  1.91562682e-06  1.91565669e-06  1.91565669e-06  1.91565669e-06  3.00151851e-05  2.98743942e-11  1.86482774e-17  4.33680869e-19
2.10261000e-03  -2.21119172e-10  1.50285308e-17  -6.03788385e-18  1.47774270e-18  3.35903304e-18  3.50380835e-18  2.21119187e-10  2.21119166e-10  2.21119173e-10  2.21119175e-10  2.21119175e-10  1.15247225e-17  9.54169220e-18  2.02606565e-18  1.44775313e-19  -6.29235830e-11  -1.69234385e-17  6.64917386e-18  -1.27976341e-18  -3.09726354e-18  -3.44591788e-18  6.29235661e-11  6.29235897e-11  6.29235817e-11  6.29235799e-11  6.29235796e-11  1.34775206e-17  1.00950917e-17  2.16615447e-18  3.48654341e-19  -2.29567879e-03  -2.87489981e-03  -2.29645960e-03  -2.29715730e-03  -2.29715730e-03  -2.29715730e-03  5.79221020e-04  7.80811968e-07  1.47851289e-06  1.47851029e-06  1.47851029e-06  5.77742510e-04  6.97698324e-07  2.59268908e-12  1.17961196e-16  3.54449680e-03  3.58056574e-03  3.55047443e-03  3.55048070e-03  3.55048070e-03  3.55048070e-03  3.60689360e-05  5.97762896e-06  5.98390149e-06  5.98390149e-06  5.98390149e-06  3.00850345e-05  6.27253323e-09  1.69135539e-16  4.85722573e-17  -1.04859533e-03  -1.08052829e-03  -1.05051098e-03  -1.05051101e-03  -1.05051101e-03  -1.05051101e-03  3.19329557e-05  1.91564120e-06  1.91567107e-06  1.91567107e-06  1.91567107e-06  3.00172846e-05  2.98764839e-11  1.86482774e-17  4.33680869e-19
2.24278400e-03  -2.35841140e-10  1.50295819e-17  -6.03830613e-18  1.47784605e-18  3.35926796e-18  3.50405340e-18  2.35841155e-10  2.35841134e-10  2.35841141e-10  2.35841143e-10  2.35841144e-10  1.15255285e-17  9.54235952e-18  2.02620735e-18  1.44785439e-19  -6.72765836e-11  -1.69246221e-17  6.64963889e-18  -1.27985291e-18  -3.09748015e-18  -3.44615888e-18  6.72765667e-11  6.72765903e-11  6.72765823e-11  6.72765805e-11  6.72765802e-11  1.34784632e-17  1.00957978e-17  2.16630596e-18  3.48678725e-19  -2.29583954e-03  -2.87510088e-03  -2.29662021e-03  -2.29731796e-03  -2.29731796e-03  -2.29731796e-03  5.79261337e-04  7.80673498e-07  1.47842321e-06  1.47842062e-06  1.47842062e-06  5.77782916e-04  6.97747119e-07  2.59287080e-12  1.17961196e-16  3.54474511e-03  3.58081615e-03  3.55072274e-03  3.55072901e-03  3.55072901e-03  3.55072901e-03  3.60710386e-05  5.97762708e-06  5.98390005e-06  5.98390005e-06  5.98390005e-06  3.00871385e-05  6.27297191e-09  1.69135539e-16  4.90059382e-17  -1.04866879e-03  -1.08060386e-03  -1.05058445e-03  -1.05058448e-03  -1.05058448e-03  -1.05058448e-03  3.19350693e-05  1.91565552e-06  1.91568540e-06  1.91568540e-06  1.91568540e-06  3.00193839e-05  2.98785734e-11  1.86482774e-17  4.33680869e-19
2.38295800e-03  -2.50561015e-10  1.50306329e-17  -6.03872837e-18  1.47794939e-18  3.35950286e-18  3.50429843e-18  2.50561030e-10  2.50561009e-10  2.50561016e-10  2.50561018e-10  2.50561018e-10  1.15263344e-17  9.54302680e-18  2.02634904e-18  1.44795563e-19  -7.16494572e-11  -1.69258056e-17  6.65010388e-18  -1.27994241e-18  -3.09769675e-18  -3.44639986e-18  7.16494403e-11  7.16494639e-11  7.16494559e-11  7.16494541e-11  7.16494538e-11  1.34794057e-17  1.00965037e-17  2.16645745e-18  3.48703108e-19  -2.29600027e-03  -2.87530192e-03  -2.29678081e-03  -2.29747861e-03  -2.29747861e-03  -2.29747861e-03  5.79301650e-04  7.80534765e-07  1.47833327e-06  1.47833068e-06  1.47833068e-06  5.77823319e-04  6.97795911e-07  2.59305208e-12  1.17961196e-16  3.54499341e-03  3.58106655e-03  3.55097103e-03  3.55097731e-03  3.55097731e-03  3.55097731e-03  3.60731410e-05  5.97762516e-06  5.98389857e-06  5.98389857e-06  5.98389857e-06  3.00892425e-05  6.27341057e-09  1.68701858e-16  4.85722573e-17  -1.04874224e-03  -1.08067942e-03  -1.05065791e-03  -1.05065794e-03  -1.05065794e-03  -1.05065794e-03  3.19371828e-05  1.91566979e-06  1.91569967e-06  1.91569967e-06  1.91569967e-06  3.00214831e-05  2.98806628e-11  1.86482774e-17  4.33680869e-19
2.52313200e-03  -2.65278344e-10  1.50316838e-17  -6.03915059e-18  1.47805272e-18  3.35973775e-18  3.50454344e-18  2.65278359e-10  2.65278338e-10  2.65278346e-10  2.65278348e-10  2.65278348e-10  1.15271403e-17  9.54369403e-18  2.02649072e-18  1.44805687e-19  -7.60415654e-11  -1.69269890e-17  6.65056884e-18  -1.28003190e-18  -3.09791334e-18  -3.44664082e-18  7.60415485e-11  7.60415721e-11  7.60415641e-11  7.60415623e-11  7.60415620e-11  1.34803482e-17  1.00972097e-17  2.16660892e-18  3.48727488e-19  -2.29616100e-03  -2.87550296e-03  -2.29694140e-03  -2.29763924e-03  -2.29763924e-03  -2.29763924e-03  5.79341960e-04  7.80395766e-07  1.47824306e-06  1.47824047e-06  1.47824047e-06  5.77863719e-04  6.97844700e-07  2.59323292e-12  1.18394877e-16  3.54524169e-03  3.58131693e-03  3.55121931e-03  3.55122559e-03  3.55122559e-03  3.55122559e-03  3.60752433e-05  5.97762320e-06  5.98389705e-06  5.98389705e-06  5.98389705e-06  3.00913463e-05  6.27384919e-09  1.69135539e-16  4.85722573e-17  -1.04881569e-03  -1.08075498e-03  -1.05073137e-03  -1.05073140e-03  -1.05073140e-03  -1.05073140e-03  3.19392960e-05  1.91568401e-06  1.91571390e-06  1.91571390e-06  1.91571390e-06  3.00235821e-05  2.98827519e-11  1.86482774e-17  4.33680869e-19
2.66330600e-03  -2.79993830e-10  1.50327346e-17  -6.03957277e-18  1.47815605e-18  3.35997263e-18  3.50478844e-18  2.79993845e-10  2.79993824e-10  2.79993832e-10  2.79993834e-10  2.79993834e-10  1.15279462e-17  9.54436121e-18  2.02663238e-18  1.44815810e-19  -8.04532344e-11  -1.69281724e-17  6.65103377e-18  -1.28012138e-18  -3.09812990e-18  -3.44688177e-18  8.04532174e-11  8.04532410e-11  8.04532331e-11  8.04532313e-11  8.04532309e-11  1.34812906e-17  1.00979155e-17  2.16676039e-18  3.48751867e-19  -2.29632171e-03  -2.87570398e-03  -2.29710197e-03  -2.29779987e-03  -2.29779986e-03  -2.29779986e-03  5.79382267e-04  7.80256508e-07  1.47815259e-06  1.47814999e-06  1.47814999e-06  5.77904117e-04  6.97893485e-07  2.59341463e-12  1.17961196e-16  3.54548995e-03  3.58156729e-03  3.55146757e-03  3.55147384e-03  3.55147384e-03  3.55147384e-03  3.60773454e-05  5.97762121e-06  5.98389550e-06  5.98389550e-06  5.98389550e-06  3.00934499e-05  6.27428778e-09  1.69135539e-16  4.85722573e-17  -1.04888913e-03  -1.08083054e-03  -1.05080483e-03  -1.05080486e-03  -1.05080486e-03  -1.05080486e-03  3.19414091e-05  1.91569818e-06  1.91572807e-06  1.91572807e-06  1.91572807e-06  3.00256810e-05  2.98848409e-11  1.88651178e-17  4.33680869e-19
2.80348000e-03  -2.94706376e-10  1.50337854e-17  -6.03999493e-18  1.47825937e-18  3.36020748e-18  3.50503342e-18  2.94706391e-10  2.94706370e-10  2.94706377e-10  2.94706379e-10  2.94706379e-10  1.15287520e-17  9.54502834e-18  2.02677404e-18  1.44825932e-19  -8.48846063e-11  -1.69293556e-17  6.65149867e-18  -1.28021086e-18  -3.09834646e-18  -3.44712270e-18  8.48845894e-11  8.48846129e-11  8.48846050e-11  8.48846032e-11  8.48846028e-11  1.34822329e-17  1.00986214e-17  2.16691184e-18  3.48776244e-19  -2.29648242e-03  -2.87590499e-03  -2.29726253e-03  -2.29796048e-03  -2.29796048e-03  -2.29796048e-03  5.79422570e-04  7.80116983e-07  1.47806184e-06  1.47805925e-06  1.47805925e-06  5.77944511e-04  6.97942266e-07  2.59359591e-12  1.17961196e-16  3.54573819e-03  3.58181764e-03  3.55171581e-03  3.55172209e-03  3.55172209e-03  3.55172209e-03  3.60794473e-05  5.97761919e-06  5.98389392e-06  5.98389392e-06  5.98389392e-06  3.00955534e-05  6.27472635e-09  1.69135539e-16  4.85722573e-17  -1.04896256e-03  -1.08090608e-03  -1.05087828e-03  -1.05087831e-03  -1.05087831e-03  -1.05087831e-03  3.19435220e-05  1.91571230e-06  1.91574218e-06  1.91574218e-06  1.91574218e-06  3.00277798e-05  2.98869297e-11  1.86482774e-17  4.33680869e-19
2.94365400e-03  -3.09417658e-10  1.50348361e-17  -6.04041705e-18  1.47836269e-18  3.36044232e-18  3.50527838e-18  3.09417673e-10  3.09417652e-10  3.09417660e-10  3.09417662e-10  3.09417662e-10  1.15295577e-17  9.54569543e-18  2.02691569e-18  1.44836054e-19  -8.93350463e-11  -1.69305388e-17  6.65196353e-18  -1.28030034e-18  -3.09856300e-18  -3.44736362e-18  8.93350294e-11  8.93350530e-11  8.93350450e-11  8.93350432e-11  8.93350429e-11  1.34831752e-17  1.00993272e-17  2.16706328e-18  3.48800620e-19  -2.29664311e-03  -2.87610598e-03  -2.29742309e-03  -2.29812108e-03  -2.29812108e-03  -2.29812108e-03  5.79462871e-04  7.79977197e-07  1.47797084e-06  1.47796824e-06  1.47796824e-06  5.77984903e-04  6.97991045e-07  2.59377676e-12  1.18394877e-16  3.54598642e-03  3.58206797e-03  3.55196404e-03  3.55197031e-03  3.55197031e-03  3.55197031e-03  3.60815490e-05  5.97761713e-06  5.98389230e-06  5.98389230e-06  5.98389230e-06  3.00976567e-05  6.27516488e-09  1.68701858e-16  4.85722573e-17  -1.04903599e-03  -1.08098163e-03  -1.05095172e-03  -1.05095175e-03  -1.05095175e-03  -1.05095175e-03  3.19456346e-05  1.91572636e-06  1.91575625e-06  1.91575625e-06  1.91575625e-06  3.00298784e-05  2.98890186e-11  1.86482774e-17  4.33680869e-19
3.08382800e-03  -3.24126274e-10  1.50358867e-17  -6.04083915e-18  1.47846599e-18  3.36067715e-18  3.50552332e-18  3.24126289e-10  3.24126268e-10  3.24126276e-10  3.24126278e-10  3.24126278e-10  1.15303634e-17  9.54636248e-18  2.02705733e-18  1.44846175e-19  -9.38048007e-11  -1.69317219e-17  6.65242836e-18  -1.28038980e-18  -3.09877952e-18  -3.44760452e-18  9.38047838e-11  9.38048074e-11  9.38047995e-11  9.38047976e-11  9.38047973e-11  1.34841173e-17  1.01000329e-17  2.16721471e-18  3.48824994e-19  -2.29680379e-03  -2.87630696e-03  -2.29758363e-03  -2.29828167e-03  -2.29828167e-03  -2.29828167e-03  5.79503169e-04  7.79837147e-07  1.47787956e-06  1.47787697e-06  1.47787697e-06  5.78025292e-04  6.98039819e-07  2.59395847e-12  1.17961196e-16  3.54623463e-03  3.58231828e-03  3.55221224e-03  3.55221852e-03  3.55221852e-03  3.55221852e-03  3.60836505e-05  5.97761504e-06  5.98389064e-06  5.98389064e-06  5.98389064e-06  3.00997599e-05  6.27560338e-09  1.68701858e-16  4.85722573e-17  -1.04910942e-03  -1.08105717e-03  -1.05102516e-03  -1.05102519e-03  -1.05102519e-03  -1.05102519e-03  3.19477471e-05  1.91574037e-06  1.91577026e-06  1.91577026e-06  1.91577026e-06  3.00319768e-05  2.98911072e-11  1.86482774e-17  4.33680869e-19
3.22400200e-03  -3.38832596e-10  1.50369372e-17  -6.04126122e-18  1.47856929e-18  3.36091196e-18  3.50576825e-18  3.38832611e-10  3.38832590e-10  3.38832597e-10  3.38832599e-10  3.38832599e-10  1.15311690e-17  9.54702947e-18  2.02719896e-18  1.44856295e-19  -9.82942963e-11  -1.69329049e-17  6.65289316e-18  -1.28047926e-18  -3.09899603e-18  -3.44784540e-18  9.82942794e-11  9.82943030e-11  9.82942950e-11  9.82942932e-11  9.82942929e-11  1.34850595e-17  1.01007386e-17  2.16736614e-18  3.48849366e-19  -2.29696446e-03  -2.87650792e-03  -2.29774416e-03  -2.29844225e-03  -2.29844225e-03  -2.29844225e-03  5.79543463e-04  7.79696836e-07  1.47778802e-06  1.47778543e-06  1.47778543e-06  5.78065678e-04  6.98088591e-07  2.59413931e-12  1.17961196e-16  3.54648282e-03  3.58256857e-03  3.55246043e-03  3.55246671e-03  3.55246671e-03  3.55246671e-03  3.60857519e-05  5.97761291e-06  5.98388895e-06  5.98388895e-06  5.98388895e-06  3.01018629e-05  6.27604185e-09  1.69135539e-16  4.90059382e-17  -1.04918284e-03  -1.08113270e-03  -1.05109859e-03  -1.05109862e-03  -1.05109862e-03  -1.05109862e-03  3.19498594e-05  1.91575433e-06  1.91578422e-06  1.91578422e-06  1.91578422e-06  3.00340751e-05  2.98931956e-11  1.86482774e-17  4.33680869e-19
3.36417600e-03  -3.53536821e-10  1.50379877e-17  -6.04168326e-18  1.47867258e-18  3.36114675e-18  3.50601316e-18  3.53536836e-10  3.53536815e-10  3.53536823e-10  3.53536825e-10  3.53536825e-10  1.15319745e-17  9.54769642e-18  2.02734058e-18  1.44866415e-19  -1.02802416e-10  -1.69340878e-17  6.65335793e-18  -1.28056871e-18  -3.09921253e-18  -3.44808626e-18  1.02802399e-10  1.02802423e-10  1.02802415e-10  1.02802413e-10  1.02802412e-10  1.34860015e-17  1.01014442e-17  2.16751755e-18  3.48873736e-19  -2.29712512e-03  -2.87670888e-03  -2.29790468e-03  -2.29860282e-03  -2.29860281e-03  -2.29860281e-03  5.79583755e-04  7.79556261e-07  1.47769621e-06  1.47769362e-06  1.47769362e-06  5.78106061e-04  6.98137359e-07  2.59432059e-12  1.18394877e-16  3.54673100e-03  3.58281885e-03  3.55270861e-03  3.55271488e-03  3.55271488e-03  3.55271488e-03  3.60878531e-05  5.97761074e-06  5.98388722e-06  5.98388722e-06  5.98388722e-06  3.01039658e-05  6.27648029e-09  1.69135539e-16  4.90059382e-17  -1.04925625e-03  -1.08120823e-03  -1.05117202e-03  -1.05117205e-03  -1.05117205e-03  -1.05117205e-03  3.19519714e-05  1.91576824e-06  1.91579813e-06  1.91579813e-06  1.91579813e-06  3.00361733e-05  2.98952839e-11  1.86482774e-17  4.33680869e-19
3.50435000e-03  -3.68238690e-10  1.50390381e-17  -6.04210527e-18  1.47877587e-18  3.36138152e-18  3.50625805e-18  3.68238705e-10  3.68238683e-10  3.68238691e-10  3.68238693e-10  3.68238693e-10  1.15327800e-17  9.54836332e-18  2.02748219e-18  1.44876534e-19  -1.07329760e-10  -1.69352706e-17  6.65382266e-18  -1.28065816e-18  -3.09942900e-18  -3.44832711e-18  1.07329743e-10  1.07329766e-10  1.07329758e-10  1.07329757e-10  1.07329756e-10  1.34869435e-17  1.01021498e-17  2.16766895e-18  3.48898105e-19  -2.29728577e-03  -2.87690981e-03  -2.29806518e-03  -2.29876337e-03  -2.29876337e-03  -2.29876337e-03  5.79624043e-04  7.79415424e-07  1.47760414e-06  1.47760155e-06  1.47760155e-06  5.78146442e-04  6.98186123e-07  2.59450187e-12  1.17961196e-16  3.54697915e-03  3.58306911e-03  3.55295676e-03  3.55296304e-03  3.55296304e-03  3.55296304e-03  3.60899540e-05  5.97760854e-06  5.98388546e-06  5.98388546e-06  5.98388546e-06  3.01060686e-05  6.27691870e-09  1.68701858e-16  4.85722573e-17  -1.04932966e-03  -1.08128375e-03  -1.05124545e-03  -1.05124548e-03  -1.05124548e-03  -1.05124548e-03  3.19540833e-05  1.91578210e-06  1.91581199e-06  1.91581199e-06  1.91581199e-06  3.00382713e-05  2.98973721e-11  1.88651178e-17  6.50521303e-19
3.64452400e-03  -3.82938233e-10  1.50400884e-17  -6.04252725e-18  1.47887915e-18  3.36161628e-18  3.50650293e-18  3.82938248e-10  3.82938227e-10  3.82938235e-10  3.82938237e-10  3.82938237e-10  1.15335855e-17  9.54903018e-18  2.02762378e-18  1.44886652e-19  -1.11876428e-10  -1.69364534e-17  6.65428737e-18  -1.28074760e-18  -3.09964547e-18  -3.44856794e-18  1.11876411e-10  1.11876435e-10  1.11876427e-10  1.11876425e-10  1.11876425e-10  1.34878854e-17  1.01028553e-17  2.16782034e-18  3.48922472e-19  -2.29744641e-03  -2.87711074e-03  -2.29822568e-03  -2.29892392e-03  -2.29892392e-03  -2.29892392e-03  5.79664328e-04  7.79274327e-07  1.47751181e-06  1.47750921e-06  1.47750921e-06  5.78186819e-04  6.98234885e-07  2.59468315e-12  1.17961196e-16  3.54722729e-03  3.58331935e-03  3.55320490e-03  3.55321118e-03  3.55321118e-03  3.55321118e-03  3.60920548e-05  5.97760631e-06  5.98388366e-06  5.98388366e-06  5.98388366e-06  3.01081712e-05  6.27735708e-09  1.69135539e-16  4.85722573e-17  -1.04940307e-03  -1.08135926e-03  -1.05131886e-03  -1.05131889e-03  -1.05131889e-03  -1.05131889e-03  3.19561950e-05  1.91579590e-06  1.91582580e-06  1.91582580e-06  1.91582580e-06  3.00403692e-05  2.98994601e-11  1.86482774e-17  4.33680869e-19
3.78469800e-03  -3.97635666e-10  1.50411387e-17  -6.04294920e-18  1.47898242e-18  3.36185102e-18  3.50674779e-18  3.97635681e-10  3.97635660e-10  3.97635667e-10  3.97635669e-10  3.97635669e-10  1.15343909e-17  9.54969699e-18  2.02776537e-18  1.44896769e-19  -1.16442425e-10  -1.69376361e-17  6.65475203e-18  -1.28083704e-18  -3.09986192e-18  -3.44880875e-18  1.16442408e-10  1.16442432e-10  1.16442424e-10  1.16442422e-10  1.16442422e-10  1.34888273e-17  1.01035608e-17  2.16797172e-18  3.48946837e-19  -2.29760703e-03  -2.87731164e-03  -2.29838617e-03  -2.29908445e-03  -2.29908445e-03  -2.29908445e-03  5.79704611e-04  7.79132967e-07  1.47741920e-06  1.47741661e-06  1.47741661e-06  5.78227194e-04  6.98283642e-07  2.59486399e-12  1.18394877e-16  3.54747542e-03  3.58356957e-03  3.55345302e-03  3.55345930e-03  3.55345930e-03  3.55345930e-03  3.60941555e-05  5.97760403e-06  5.98388183e-06  5.98388183e-06  5.98388183e-06  3.01102736e-05  6.27779543e-09  1.69135539e-16  4.90059382e-17  -1.04947647e-03  -1.08143478e-03  -1.05139228e-03  -1.05139231e-03  -1.05139231e-03  -1.05139231e-03  3.19583065e-05  1.91580965e-06  1.91583955e-06  1.91583955e-06  1.91583955e-06  3.00424669e-05  2.99015480e-11  1.86482774e-17  4.33680869e-19
3.92487200e-03  -4.12331341e-10  1.50421888e-17  -6.04337112e-18  1.47908568e-18  3.36208575e-18  3.50699263e-18  4.12331356e-10  4.12331335e-10  4.12331342e-10  4.12331344e-10  4.12331344e-10  1.15351962e-17  9.55036375e-18  2.02790695e-18  1.44906886e-19  -1.21026533e-10  -1.69388186e-17  6.65521667e-18  -1.28092647e-18  -3.10007835e-18  -3.44904955e-18  1.21026516e-10  1.21026539e-10  1.21026531e-10  1.21026529e-10  1.21026529e-10  1.34897691e-17  1.01042662e-17  2.16812308e-18  3.48971201e-19  -2.29776765e-03  -2.87751254e-03  -2.29854664e-03  -2.29924498e-03  -2.29924497e-03  -2.29924497e-03  5.79744890e-04  7.78991345e-07  1.47732634e-06  1.47732374e-06  1.47732374e-06  5.78267566e-04  6.98332397e-07  2.59504527e-12  1.18394877e-16  3.54772352e-03  3.58381978e-03  3.55370112e-03  3.55370740e-03  3.55370740e-03  3.55370740e-03  3.60962559e-05  5.97760173e-06  5.98387996e-06  5.98387996e-06  5.98387996e-06  3.01123759e-05  6.27823375e-09  1.69135539e-16  4.85722573e-17  -1.04954986e-03  -1.08151028e-03  -1.05146569e-03  -1.05146572e-03  -1.05146572e-03  -1.05146572e-03  3.19604177e-05  1.91582335e-06  1.91585326e-06  1.91585326e-06  1.91585326e-06  3.00445645e-05  2.99036358e-11  1.86482774e-17  4.33680869e-19
4.06504600e-03  -4.27025009e-10  1.50432389e-17  -6.04379301e-18  1.47918894e-18  3.36232046e-18  3.50723746e-18  4.27025024e-10  4.27025003e-10  4.27025011e-10  4.27025012e-10  4.27025013e-10  1.15360015e-17  9.55103047e-18  2.02804852e-18  1.44917002e-19  -1.25629868e-10  -1.69400012e-17  6.65568128e-18  -1.28101589e-18  -3.10029477e-18  -3.44929033e-18  1.25629851e-10  1.25629874e-10  1.25629866e-10  1.25629865e-10  1.25629864e-10  1.34907108e-17  1.01049716e-17  2.16827444e-18  3.48995563e-19  -2.29792825e-03  -2.87771342e-03  -2.29870710e-03  -2.29940549e-03  -2.29940548e-03  -2.29940548e-03  5.79785166e-04  7.78849462e-07  1.47723320e-06  1.47723061e-06  1.47723061e-06  5.78307935e-04  6.98381148e-07  2.59522655e-12  1.17961196e-16  3.54797161e-03  3.58406997e-03  3.55394921e-03  3.55395549e-03  3.55395549e-03  3.55395549e-03  3.60983562e-05  5.97759938e-06  5.98387806e-06  5.98387806e-06  5.98387806e-06  3.01144781e-05  6.27867203e-09  1.69135539e-16  4.90059382e-17  -1.04962325e-03  -1.08158578e-03  -1.05153909e-03  -1.05153912e-03  -1.05153912e-03  -1.05153912e-03  3.19625288e-05  1.91583700e-06  1.91586691e-06  1.91586691e-06  1.91586691e-06  3.00466619e-05  2.99057233e-11  1.88651178e-17  4.33680869e-19
4.20522000e-03  -4.41715735e-10  1.50442890e-17  -6.04421487e-18  1.47929218e-18  3.36255515e-18  3.50748227e-18  4.41715750e-10  4.41715729e-10  4.41715737e-10  4.41715739e-10  4.41715739e-10  1.15368067e-17  9.55169714e-18  2.02819008e-18  1.44927118e-19  -1.30252677e-10  -1.69411836e-17  6.65614585e-18  -1.28110530e-18  -3.10051117e-18  -3.44953109e-18  1.30252660e-10  1.30252683e-10  1.30252675e-10  1.30252674e-10  1.30252673e-10  1.34916525e-17  1.01056769e-17  2.16842579e-18  3.49019923e-19  -2.29808885e-03  -2.87791429e-03  -2.29886756e-03  -2.29956599e-03  -2.29956598e-03  -2.29956598e-03  5.79825439e-04  7.78707318e-07  1.47713981e-06  1.47713721e-06  1.47713721e-06  5.78348302e-04  6.98429895e-07  2.59540783e-12  1.17961196e-16  3.54821968e-03  3.58432014e-03  3.55419728e-03  3.55420356e-03  3.55420356e-03  3.55420356e-03  3.61004562e-05  5.97759701e-06  5.98387612e-06  5.98387612e-06  5.98387612e-06  3.01165801e-05  6.27911029e-09  1.68701858e-16  4.85722573e-17  -1.04969664e-03  -1.08166128e-03  -1.05161249e-03  -1.05161252e-03  -1.05161252e-03  -1.05161252e-03  3.19646397e-05  1.91585060e-06  1.91588051e-06  1.91588051e-06  1.91588051e-06  3.00487592e-05  2.99078108e-11  1.86482774e-17  4.33680869e-19
4.34539400e-03  -4.56404890e-10  1.50453389e-17  -6.04463670e-18  1.47939543e-18  3.36278982e-18  3.50772706e-18  4.56404905e-10  4.56404884e-10  4.56404891e-10  4.56404893e-10  4.56404893e-10  1.15376119e-17  9.55236376e-18  2.02833163e-18  1.44937232e-19  -1.34893458e-10  -1.69423659e-17  6.65661039e-18  -1.28119471e-18  -3.10072756e-18  -3.44977184e-18  1.34893441e-10  1.34893464e-10  1.34893456e-10  1.34893454e-10  1.34893454e-10  1.34925941e-17  1.01063822e-17  2.16857713e-18  3.49044281e-19  -2.29824943e-03  -2.87811514e-03  -2.29902800e-03  -2.29972648e-03  -2.29972647e-03  -2.29972647e-03  5.79865709e-04  7.78564913e-07  1.47704615e-06  1.47704355e-06  1.47704355e-06  5.78388665e-04  6.98478640e-07  2.59558867e-12  1.18394877e-16  3.54846773e-03  3.58457029e-03  3.55444533e-03  3.55445161e-03  3.55445161e-03  3.55445161e-03  3.61025561e-05  5.97759459e-06  5.98387414e-06  5.98387414e-06  5.98387414e-06  3.01186820e-05  6.27954851e-09  1.69135539e-16  4.85722573e-17  -1.04977002e-03  -1.08173677e-03  -1.05168588e-03  -1.05168591e-03  -1.05168591e-03  -1.05168591e-03  3.19667504e-05  1.91586415e-06  1.91589406e-06  1.91589406e-06  1.91589406e-06  3.00508563e-05  2.99098981e-11  1.86482774e-17  4.33680869e-19
4.48556800e-03  -4.71091102e-10  1.50463888e-17  -6.04505851e-18  1.47949866e-18  3.36302448e-18  3.50797183e-18  4.71091117e-10  4.71091096e-10  4.71091103e-10  4.71091105e-10  4.71091105e-10  1.15384170e-17  9.55303034e-18  2.02847317e-18  1.44947346e-19  -1.39553129e-10  -1.69435482e-17  6.65707489e-18  -1.28128412e-18  -3.10094393e-18  -3.45001257e-18  1.39553113e-10  1.39553136e-10  1.39553128e-10  1.39553126e-10  1.39553126e-10  1.34935356e-17  1.01070875e-17  2.16872845e-18  3.49068638e-19  -2.29841000e-03  -2.87831598e-03  -2.29918842e-03  -2.29988695e-03  -2.29988695e-03  -2.29988695e-03  5.79905976e-04  7.78422247e-07  1.47695222e-06  1.47694963e-06  1.47694963e-06  5.78429026e-04  6.98527380e-07  2.59576995e-12  1.17961196e-16  3.54871577e-03  3.58482043e-03  3.55469336e-03  3.55469964e-03  3.55469964e-03  3.55469964e-03  3.61046558e-05  5.97759214e-06  5.98387213e-06  5.98387213e-06  5.98387213e-06  3.01207837e-05  6.27998671e-09  1.69135539e-16  4.85722573e-17  -1.04984339e-03  -1.08181225e-03  -1.05175927e-03  -1.05175930e-03  -1.05175930e-03  -1.05175930e-03  3.19688609e-05  1.91587764e-06  1.91590755e-06  1.91590755e-06  1.91590755e-06  3.00529533e-05  2.99119854e-11  1.86482774e-17  4.33680869e-19
4.62574200e-03  -4.85775389e-10  1.50474386e-17  -6.04548028e-18  1.47960189e-18  3.36325913e-18  3.50821659e-18  4.85775404e-10  4.85775383e-10  4.85775390e-10  4.85775392e-10  4.85775392e-10  1.15392220e-17  9.55369687e-18  2.02861470e-18  1.44957459e-19  -1.44232334e-10  -1.69447304e-17  6.65753937e-18  -1.28137351e-18  -3.10116029e-18  -3.45025328e-18  1.44232317e-10  1.44232341e-10  1.44232333e-10  1.44232331e-10  1.44232331e-10  1.34944771e-17  1.01077927e-17  2.16887977e-18  3.49092993e-19  -2.29857056e-03  -2.87851680e-03  -2.29934884e-03  -2.30004742e-03  -2.30004742e-03  -2.30004742e-03  5.79946239e-04  7.78279322e-07  1.47685804e-06  1.47685544e-06  1.47685544e-06  5.78469384e-04  6.98576118e-07  2.59595123e-12  1.17961196e-16  3.54896379e-03  3.58507055e-03  3.55494138e-03  3.55494766e-03  3.55494766e-03  3.55494766e-03  3.61067554e-05  5.97758965e-06  5.98387008e-06  5.98387008e-06  5.98387008e-06  3.01228853e-05  6.28042487e-09  1.69135539e-16  4.85722573e-17  -1.04991676e-03  -1.08188773e-03  -1.05183265e-03  -1.05183268e-03  -1.05183268e-03  -1.05183268e-03  3.19709712e-05  1.91589108e-06  1.91592100e-06  1.91592100e-06  1.91592100e-06  3.00550502e-05  2.99140723e-11  1.86482774e-17  4.33680869e-19
4.76591600e-03  -5.00457757e-10  1.50484884e-17  -6.04590202e-18  1.47970511e-18  3.36349376e-18  3.50846133e-18  5.00457772e-10  5.00457751e-10  5.00457758e-10  5.00457760e-10  5.00457760e-10  1.15400270e-17  9.55436335e-18  2.02875622e-18  1.44967572e-19  -1.48929452e-10  -1.69459125e-17  6.65800381e-18  -1.28146291e-18  -3.10137663e-18  -3.45049398e-18  1.48929435e-10  1.48929459e-10  1.48929451e-10  1.48929449e-10  1.48929449e-10  1.34954185e-17  1.01084978e-17  2.16903107e-18  3.49117346e-19  -2.29873111e-03  -2.87871761e-03  -2.29950925e-03  -2.30020788e-03  -2.30020787e-03  -2.30020787e-03  5.79986500e-04  7.78136135e-07  1.47676358e-06  1.47676099e-06  1.47676099e-06  5.78509739e-04  6.98624852e-07  2.59613208e-12  1.18394877e-16  3.54921179e-03  3.58532065e-03  3.55518938e-03  3.55519566e-03  3.55519566e-03  3.55519566e-03  3.61088547e-05  5.97758713e-06  5.98386799e-06  5.98386799e-06  5.98386799e-06  3.01249867e-05  6.28086301e-09  1.69135539e-16  4.85722573e-17  -1.04999013e-03  -1.08196321e-03  -1.05190603e-03  -1.05190606e-03  -1.05190606e-03  -1.05190606e-03  3.19730812e-05  1.91590448e-06  1.91593439e-06  1.91593439e-06  1.91593439e-06  3.00571469e-05  2.99161592e-11  1.86482774e-17  4.33680869e-19
4.90609000e-03  -5.15137500e-10  1.50495380e-17  -6.04632374e-18  1.47980832e-18  3.36372837e-18  3.50870605e-18  5.15137515e-10  5.15137494e-10  5.15137502e-10  5.15137504e-10  5.15137504e-10  1.15408320e-17  9.55502979e-18  2.02889773e-18  1.44977684e-19  -1.53645371e-10  -1.69470945e-17  6.65846822e-18  -1.28155229e-18  -3.10159296e-18  -3.45073466e-18  1.53645354e-10  1.53645377e-10  1.53645369e-10  1.53645368e-10  1.53645367e-10  1.34963598e-17  1.01092029e-17  2.16918237e-18  3.49141698e-19  -2.29889165e-03  -2.87891841e-03  -2.29966965e-03  -2.30036832e-03  -2.30036832e-03  -2.30036832e-03  5.80026757e-04  7.77992687e-07  1.47666887e-06  1.47666627e-06  1.47666627e-06  5.78550091e-04  6.98673582e-07  2.59631336e-12  1.17961196e-16  3.54945978e-03  3.58557073e-03  3.55543736e-03  3.55544364e-03  3.55544364e-03  3.55544364e-03  3.61109539e-05  5.97758457e-06  5.98386587e-06  5.98386587e-06  5.98386587e-06  3.01270880e-05  6.28130111e-09  1.69135539e-16  4.85722573e-17  -1.05006349e-03  -1.08203868e-03  -1.05197940e-03  -1.05197943e-03  -1.05197943e-03  -1.05197943e-03  3.19751911e-05  1.91591781e-06  1.91594773e-06  1.91594773e-06  1.91594773e-06  3.00592434e-05  2.99182458e-11  1.86482774e-17  4.33680869e-19
5.04626400e-03  -5.29815808e-10  1.50505876e-17  -6.04674542e-18  1.47991152e-18  3.36396296e-18  3.50895076e-18  5.29815823e-10  5.29815801e-10  5.29815809e-10  5.29815811e-10  5.29815811e-10  1.15416369e-17  9.55569618e-18  2.02903923e-18  1.44987795e-19  -1.58379719e-10  -1.69482764e-17  6.65893260e-18  -1.28164167e-18  -3.10180927e-18  -3.45097532e-18  1.58379702e-10  1.58379726e-10  1.58379718e-10  1.58379716e-10  1.58379716e-10  1.34973011e-17  1.01099079e-17  2.16933365e-18  3.49166048e-19  -2.29905218e-03  -2.87911919e-03  -2.29983003e-03  -2.30052875e-03  -2.30052875e-03  -2.30052875e-03  5.80067012e-04  7.77848981e-07  1.47657389e-06  1.47657129e-06  1.47657129e-06  5.78590441e-04  6.98722309e-07  2.59649463e-12  1.17961196e-16  3.54970774e-03  3.58582080e-03  3.55568533e-03  3.55569161e-03  3.55569161e-03  3.55569161e-03  3.61130528e-05  5.97758197e-06  5.98386371e-06  5.98386371e-06  5.98386371e-06  3.01291891e-05  6.28173918e-09  1.69135539e-16  4.90059382e-17  -1.05013684e-03  -1.08211414e-03  -1.05205277e-03  -1.05205280e-03  -1.05205280e-03  -1.05205280e-03  3.19773008e-05  1.91593110e-06  1.91596102e-06  1.91596102e-06  1.91596102e-06  3.00613398e-05  2.99203325e-11  1.86482774e-17  4.33680869e-19
5.18643800e-03  -5.44490994e-10  1.50516371e-17  -6.04716708e-18  1.48001472e-18  3.36419754e-18  3.50919544e-18  5.44491009e-10  5.44490988e-10  5.44490995e-10  5.44490997e-10  5.44490997e-10  1.15424417e-17  9.55636252e-18  2.02918072e-18  1.44997905e-19  -1.63132667e-10  -1.69494583e-17  6.65939694e-18  -1.28173104e-18  -3.10202557e-18  -3.45121597e-18  1.63132650e-10  1.63132674e-10  1.63132666e-10  1.63132664e-10  1.63132664e-10  1.34982423e-17  1.01106129e-17  2.16948492e-18  3.49190396e-19  -2.29921270e-03  -2.87931996e-03  -2.29999040e-03  -2.30068918e-03  -2.30068917e-03  -2.30068917e-03  5.80107263e-04  7.77705014e-07  1.47647864e-06  1.47647605e-06  1.47647605e-06  5.78630787e-04  6.98771033e-07  2.59667548e-12  1.18394877e-16  3.54995569e-03  3.58607085e-03  3.55593327e-03  3.55593955e-03  3.55593955e-03  3.55593955e-03  3.61151516e-05  5.97757934e-06  5.98386152e-06  5.98386152e-06  5.98386152e-06  3.01312901e-05  6.28217723e-09  1.69135539e-16  4.85722573e-17  -1.05021019e-03  -1.08218960e-03  -1.05212613e-03  -1.05212616e-03  -1.05212616e-03  -1.05212616e-03  3.19794103e-05  1.91594434e-06  1.91597426e-06  1.91597426e-06  1.91597426e-06  3.00634361e-05  2.99224189e-11  1.86482774e-17  4.33680869e-19
5.32661200e-03  -5.59164336e-10  1.50526866e-17  -6.04758870e-18  1.48011791e-18  3.36443210e-18  3.50944012e-18  5.59164351e-10  5.59164330e-10  5.59164338e-10  5.59164340e-10  5.59164340e-10  1.15432465e-17  9.55702882e-18  2.02932220e-18  1.45008015e-19  -1.67904787e-10  -1.69506400e-17  6.65986126e-18  -1.28182041e-18  -3.10224185e-18  -3.45145659e-18  1.67904770e-10  1.67904794e-10  1.67904786e-10  1.67904784e-10  1.67904784e-10  1.34991834e-17  1.01113179e-17  2.16963619e-18  3.49214743e-19  -2.29937320e-03  -2.87952072e-03  -2.30015077e-03  -2.30084959e-03  -2.30084958e-03  -2.30084958e-03  5.80147512e-04  7.77560787e-07  1.47638314e-06  1.47638054e-06  1.47638054e-06  5.78671131e-04  6.98819753e-07  2.59685676e-12  1.17961196e-16  3.55020363e-03  3.58632088e-03  3.55618120e-03  3.55618749e-03  3.55618749e-03  3.55618749e-03  3.61172503e-05  5.97757668e-06  5.98385929e-06  5.98385929e-06  5.98385929e-06  3.01333910e-05  6.28261524e-09  1.69135539e-16  4.85722573e-17  -1.05028353e-03  -1.08226505e-03  -1.05219949e-03  -1.05219952e-03  -1.05219952e-03  -1.05219952e-03  3.19815196e-05  1.91595753e-06  1.91598745e-06  1.91598745e-06  1.91598745e-06  3.00655322e-05  2.99245051e-11  1.88651178e-17  4.33680869e-19
5.46678600e-03  -5.73835425e-10  1.50537359e-17  -6.04801030e-18  1.48022110e-18  3.36466665e-18  3.50968477e-18  5.73835440e-10  5.73835419e-10  5.73835427e-10  5.73835429e-10  5.73835429e-10  1.15440512e-17  9.55769507e-18  2.02946367e-18  1.45018124e-19  -1.72694126e-10  -1.69518217e-17  6.66032554e-18  -1.28190977e-18  -3.10245812e-18  -3.45169721e-18  1.72694109e-10  1.72694133e-10  1.72694125e-10  1.72694123e-10  1.72694123e-10  1.35001245e-17  1.01120227e-17  2.16978744e-18  3.49239088e-19  -2.29953370e-03  -2.87972146e-03  -2.30031112e-03  -2.30100999e-03  -2.30100998e-03  -2.30100998e-03  5.80187757e-04  7.77416301e-07  1.47628737e-06  1.47628477e-06  1.47628477e-06  5.78711472e-04  6.98868470e-07  2.59703760e-12  1.18394877e-16  3.55045154e-03  3.58657089e-03  3.55642912e-03  3.55643540e-03  3.55643540e-03  3.55643540e-03  3.61193487e-05  5.97757397e-06  5.98385702e-06  5.98385702e-06  5.98385702e-06  3.01354917e-05  6.28305322e-09  1.69135539e-16  4.85722573e-17  -1.05035687e-03  -1.08234050e-03  -1.05227284e-03  -1.05227287e-03  -1.05227287e-03  -1.05227287e-03  3.19836287e-05  1.91597066e-06  1.91600059e-06  1.91600059e-06  1.91600059e-06  3.00676281e-05  2.99265914e-11  1.86482774e-17  4.33680869e-19
5.60696000e-03  -5.88504244e-10  1.50547852e-17  -6.04843187e-18  1.48032427e-18  3.36490117e-18  3.50992941e-18  5.88504259e-10  5.88504238e-10  5.88504245e-10  5.88504247e-10  5.88504247e-10  1.15448558e-17  9.55836128e-18  2.02960513e-18  1.45028232e-19  -1.77503057e-10  -1.69530033e-17  6.66078979e-18  -1.28199912e-18  -3.10267437e-18  -3.45193780e-18  1.77503040e-10  1.77503064e-10  1.77503056e-10  1.77503054e-10  1.77503054e-10  1.35010655e-17  1.01127276e-17  2.16993868e-18  3.49263431e-19  -2.29969418e-03  -2.87992218e-03  -2.30047146e-03  -2.30117038e-03  -2.30117037e-03  -2.30117037e-03  5.80227999e-04  7.77271557e-07  1.47619134e-06  1.47618874e-06  1.47618874e-06  5.78751810e-04  6.98917184e-07  2.59721845e-12  1.18394877e-16  3.55069944e-03  3.58682089e-03  3.55667701e-03  3.55668329e-03  3.55668329e-03  3.55668329e-03  3.61214469e-05  5.97757123e-06  5.98385472e-06  5.98385472e-06  5.98385472e-06  3.01375922e-05  6.28349117e-09  1.69135539e-16  4.85722573e-17  -1.05043021e-03  -1.08241594e-03  -1.05234619e-03  -1.05234622e-03  -1.05234622e-03  -1.05234622e-03  3.19857376e-05  1.91598375e-06  1.91601368e-06  1.91601368e-06  1.91601368e-06  3.00697240e-05  2.99286772e-11  1.86482774e-17  4.33680869e-19
5.74713400e-03  -6.03170803e-10  1.50558345e-17  -6.04885341e-18  1.48042744e-18  3.36513569e-18  3.51017403e-18  6.03170818e-10  6.03170797e-10  6.03170805e-10  6.03170807e-10  6.03170807e-10  1.15456604e-17  9.55902743e-18  2.02974658e-18  1.45038340e-19  -1.82328711e-10  -1.69541848e-17  6.66125400e-18  -1.28208847e-18  -3.10289061e-18  -3.45217838e-18  1.82328694e-10  1.82328718e-10  1.82328710e-10  1.82328708e-10  1.82328708e-10  1.35020064e-17  1.01134324e-17  2.17008991e-18  3.49287773e-19  -2.29985466e-03  -2.88012290e-03  -2.30063178e-03  -2.30133075e-03  -2.30133075e-03  -2.30133075e-03  5.80268238e-04  7.77126552e-07  1.47609504e-06  1.47609245e-06  1.47609245e-06  5.78792146e-04  6.98965894e-07  2.59739929e-12  1.18394877e-16  3.55094732e-03  3.58707087e-03  3.55692489e-03  3.55693117e-03  3.55693117e-03  3.55693117e-03  3.61235450e-05  5.97756845e-06  5.98385238e-06  5.98385238e-06  5.98385238e-06  3.01396926e-05  6.28392909e-09  1.69135539e-16  4.85722573e-17  -1.05050354e-03  -1.08249138e-03  -1.05241953e-03  -1.05241956e-03  -1.05241956e-03  -1.05241956e-03  3.19878463e-05  1.91599678e-06  1.91602671e-06  1.91602671e-06  1.91602671e-06  3.00718196e-05  2.99307629e-11  1.88651178e-17  4.33680869e-19
5.88730800e-03  -6.17835096e-10  1.50568836e-17  -6.04927492e-18  1.48053061e-18  3.36537018e-18  3.51041863e-18  6.17835111e-10  6.17835090e-10  6.17835097e-10  6.17835099e-10  6.17835099e-10  1.15464650e-17  9.55969355e-18  2.02988803e-18  1.45048446e-19  -1.87173544e-10  -1.69553663e-17  6.66171818e-18  -1.28217781e-18  -3.10310683e-18  -3.45241894e-18  1.87173527e-10  1.87173551e-10  1.87173543e-10  1.87173541e-10  1.87173541e-10  1.35029473e-17  1.01141371e-17  2.17024113e-18  3.49312112e-19  -2.30001512e-03  -2.88032359e-03  -2.30079210e-03  -2.30149112e-03  -2.30149112e-03  -2.30149112e-03  5.80308474e-04  7.76981291e-07  1.47599849e-06  1.47599589e-06  1.47599589e-06  5.78832478e-04  6.99014601e-07  2.59758057e-12  1.17961196e-16  3.55119519e-03  3.58732083e-03  3.55717275e-03  3.55717904e-03  3.55717904e-03  3.55717904e-03  3.61256429e-05  5.97756564e-06  5.98385000e-06  5.98385000e-06  5.98385000e-06  3.01417929e-05  6.28436698e-09  1.69135539e-16  4.85722573e-17  -1.05057686e-03  -1.08256681e-03  -1.05249287e-03  -1.05249290e-03  -1.05249290e-03  -1.05249290e-03  3.19899549e-05  1.91600976e-06  1.91603970e-06  1.91603970e-06  1.91603970e-06  3.00739152e-05  2.99328487e-11  1.88651178e-17  4.33680869e-19
6.02748200e-03  -6.32497117e-10  1.50579327e-17  -6.04969639e-18  1.48063376e-18  3.36560466e-18  3.51066322e-18  6.32497132e-10  6.32497111e-10  6.32497119e-10  6.32497121e-10  6.32497121e-10  1.15472695e-17  9.56035961e-18  2.03002946e-18  1.45058553e-19  -1.92036359e-10  -1.69565476e-17  6.66218234e-18  -1.28226714e-18  -3.10332304e-18  -3.45265949e-18  1.92036342e-10  1.92036366e-10  1.92036358e-10  1.92036356e-10  1.92036356e-10  1.35038881e-17  1.01148418e-17  2.17039234e-18  3.49336450e-19  -2.30017557e-03  -2.88052428e-03  -2.30095241e-03  -2.30165147e-03  -2.30165147e-03  -2.30165147e-03  5.80348707e-04  7.76835768e-07  1.47590167e-06  1.47589907e-06  1.47589907e-06  5.78872808e-04  6.99063304e-07  2.59776142e-12  1.18394877e-16  3.55144303e-03  3.58757077e-03  3.55742059e-03  3.55742688e-03  3.55742688e-03  3.55742688e-03  3.61277406e-05  5.97756279e-06  5.98384759e-06  5.98384759e-06  5.98384759e-06  3.01438930e-05  6.28480484e-09  1.69135539e-16  4.85722573e-17  -1.05065018e-03  -1.08264224e-03  -1.05256620e-03  -1.05256623e-03  -1.05256623e-03  -1.05256623e-03  3.19920632e-05  1.91602269e-06  1.91605263e-06  1.91605263e-06  1.91605263e-06  3.00760105e-05  2.99349343e-11  1.86482774e-17  4.33680869e-19
6.16765600e-03  -6.47156476e-10  1.50589817e-17  -6.05011784e-18  1.48073691e-18  3.36583913e-18  3.51090779e-18  6.47156491e-10  6.47156470e-10  6.47156477e-10  6.47156479e-10  6.47156479e-10  1.15480739e-17  9.56102563e-18  2.03017088e-18  1.45068658e-19  -1.96916969e-10  -1.69577289e-17  6.66264645e-18  -1.28235647e-18  -3.10353923e-18  -3.45290002e-18  1.96916952e-10  1.96916976e-10  1.96916968e-10  1.96916966e-10  1.96916965e-10  1.35048289e-17  1.01155465e-17  2.17054354e-18  3.49360787e-19  -2.30033601e-03  -2.88072495e-03  -2.30111270e-03  -2.30181182e-03  -2.30181182e-03  -2.30181182e-03  5.80388937e-04  7.76689988e-07  1.47580459e-06  1.47580199e-06  1.47580199e-06  5.78913135e-04  6.99112004e-07  2.59794226e-12  1.18394877e-16  3.55169086e-03  3.58782070e-03  3.55766842e-03  3.55767471e-03  3.55767471e-03  3.55767471e-03  3.61298381e-05  5.97755990e-06  5.98384514e-06  5.98384514e-06  5.98384514e-06  3.01459929e-05  6.28524267e-09  1.69135539e-16  4.85722573e-17  -1.05072349e-03  -1.08271766e-03  -1.05263953e-03  -1.05263956e-03  -1.05263956e-03  -1.05263956e-03  3.19941713e-05  1.91603557e-06  1.91606551e-06  1.91606551e-06  1.91606551e-06  3.00781058e-05  2.99370197e-11  1.86482774e-17  4.33680869e-19
6.30783000e-03  -6.61813816e-10  1.50600306e-17  -6.05053927e-18  1.48084005e-18  3.36607358e-18  3.51115234e-18  6.61813831e-10  6.61813810e-10  6.61813817e-10  6.61813819e-10  6.61813819e-10  1.15488783e-17  9.56169160e-18  2.03031229e-18  1.45078763e-19  -2.01817077e-10  -1.69589101e-17  6.66311054e-18  -1.28244579e-18  -3.10375541e-18  -3.45314053e-18  2.01817060e-10  2.01817084e-10  2.01817076e-10  2.01817074e-10  2.01817073e-10  1.35057695e-17  1.01162511e-17  2.17069473e-18  3.49385122e-19  -2.30049644e-03  -2.88092561e-03  -2.30127299e-03  -2.30197215e-03  -2.30197215e-03  -2.30197215e-03  5.80429164e-04  7.76543950e-07  1.47570725e-06  1.47570465e-06  1.47570465e-06  5.78953459e-04  6.99160701e-07  2.59812354e-12  1.18394877e-16  3.55193867e-03  3.58807061e-03  3.55791623e-03  3.55792252e-03  3.55792252e-03  3.55792252e-03  3.61319354e-05  5.97755697e-06  5.98384265e-06  5.98384265e-06  5.98384265e-06  3.01480928e-05  6.28568047e-09  1.69135539e-16  4.85722573e-17  -1.05079680e-03  -1.08279308e-03  -1.05271285e-03  -1.05271288e-03  -1.05271288e-03  -1.05271288e-03  3.19962792e-05  1.91604840e-06  1.91607834e-06  1.91607834e-06  1.91607834e-06  3.00802009e-05  2.99391050e-11  1.86482774e-17  4.33680869e-19
6.44800400e-03  -6.76468732e-10  1.50610795e-17  -6.05096066e-18  1.48094318e-18  3.36630801e-18  3.51139687e-18  6.76468747e-10  6.76468726e-10  6.76468733e-10  6.76468735e-10  6.76468735e-10  1.15496826e-17  9.56235753e-18  2.03045369e-18  1.45088867e-19  -2.06733415e-10  -1.69600912e-17  6.66357459e-18  -1.28253511e-18  -3.10397157e-18  -3.45338102e-18  2.06733398e-10  2.06733422e-10  2.06733414e-10  2.06733412e-10  2.06733412e-10  1.35067102e-17  1.01169556e-17  2.17084591e-18  3.49409455e-19  -2.30065686e-03  -2.88112625e-03  -2.30143326e-03  -2.30213247e-03  -2.30213247e-03  -2.30213247e-03  5.80469388e-04  7.76397653e-07  1.47560965e-06  1.47560705e-06  1.47560705e-06  5.78993781e-04  6.99209394e-07  2.59830438e-12  1.18394877e-16  3.55218647e-03  3.58832050e-03  3.55816402e-03  3.55817031e-03  3.55817031e-03  3.55817031e-03  3.61340326e-05  5.97755401e-06  5.98384013e-06  5.98384013e-06  5.98384013e-06  3.01501924e-05  6.28611824e-09  1.69135539e-16  4.85722573e-17  -1.05087010e-03  -1.08286849e-03  -1.05278617e-03  -1.05278620e-03  -1.05278620e-03  -1.05278620e-03  3.19983869e-05  1.91606118e-06  1.91609112e-06  1.91609112e-06  1.91609112e-06  3.00822958e-05  2.99411902e-11  1.86482774e-17  4.33680869e-19
6.58817800e-03  -6.91121268e-10  1.50621283e-17  -6.05138202e-18  1.48104631e-18  3.36654242e-18  3.51164139e-18  6.91121283e-10  6.91121262e-10  6.91121269e-10  6.91121271e-10  6.91121271e-10  1.15504869e-17  9.56302341e-18  2.03059508e-18  1.45098970e-19  -2.11668526e-10  -1.69612722e-17  6.66403862e-18  -1.28262442e-18  -3.10418771e-18  -3.45362150e-18  2.11668509e-10  2.11668533e-10  2.11668525e-10  2.11668523e-10  2.11668523e-10  1.35076507e-17  1.01176601e-17  2.17099708e-18  3.49433786e-19  -2.30081727e-03  -2.88132688e-03  -2.30159352e-03  -2.30229278e-03  -2.30229278e-03  -2.30229278e-03  5.80509608e-04  7.76251099e-07  1.47551178e-06  1.47550918e-06  1.47550918e-06  5.79034099e-04  6.99258084e-07  2.59848523e-12  1.18394877e-16  3.55243425e-03  3.58857038e-03  3.55841180e-03  3.55841808e-03  3.55841808e-03  3.55841808e-03  3.61361295e-05  5.97755101e-06  5.98383757e-06  5.98383757e-06  5.98383757e-06  3.01522920e-05  6.28655597e-09  1.69569220e-16  4.90059382e-17  -1.05094340e-03  -1.08294390e-03  -1.05285948e-03  -1.05285951e-03  -1.05285951e-03  -1.05285951e-03  3.20004945e-05  1.91607391e-06  1.91610385e-06  1.91610385e-06  1.91610385e-06  3.00843906e-05  2.99432751e-11  1.86482774e-17  4.33680869e-19
6.72835200e-03  -7.05771308e-10  1.50631770e-17  -6.05180335e-18  1.48114943e-18  3.36677682e-18  3.51188589e-18  7.05771323e-10  7.05771302e-10  7.05771309e-10  7.05771311e-10  7.05771311e-10  1.15512911e-17  9.56368924e-18  2.03073646e-18  1.45109073e-19  -2.16621221e-10  -1.69624532e-17  6.66450261e-18  -1.28271372e-18  -3.10440385e-18  -3.45386196e-18  2.16621204e-10  2.16621228e-10  2.16621220e-10  2.16621218e-10  2.16621218e-10  1.35085912e-17  1.01183646e-17  2.17114824e-18  3.49458116e-19  -2.30097767e-03  -2.88152749e-03  -2.30175377e-03  -2.30245308e-03  -2.30245308e-03  -2.30245308e-03  5.80549826e-04  7.76104287e-07  1.47541366e-06  1.47541106e-06  1.47541106e-06  5.79074415e-04  6.99306771e-07  2.59866607e-12  1.18394877e-16  3.55268201e-03  3.58882023e-03  3.55865955e-03  3.55866584e-03  3.55866584e-03  3.55866584e-03  3.61382263e-05  5.97754798e-06  5.98383497e-06  5.98383497e-06  5.98383497e-06  3.01543913e-05  6.28699368e-09  1.69135539e-16  4.85722573e-17  -1.05101670e-03  -1.08301930e-03  -1.05293278e-03  -1.05293281e-03  -1.05293281e-03  -1.05293281e-03  3.20026018e-05  1.91608659e-06  1.91611653e-06  1.91611653e-06  1.91611653e-06  3.00864853e-05  2.99453598e-11  1.88651178e-17  4.33680869e-19
6.86852600e-03  -7.20419387e-10  1.50642256e-17  -6.05222465e-18  1.48125254e-18  3.36701120e-18  3.51213038e-18  7.20419402e-10  7.20419381e-10  7.20419389e-10  7.20419391e-10  7.20419391e-10  1.15520953e-17  9.56435503e-18  2.03087784e-18  1.45119175e-19  -2.21593056e-10  -1.69636340e-17  6.66496656e-18  -1.28280302e-18  -3.10461996e-18  -3.45410241e-18  2.21593039e-10  2.21593063e-10  2.21593055e-10  2.21593053e-10  2.21593053e-10  1.35095316e-17  1.01190690e-17  2.17129938e-18  3.49482443e-19  -2.30113805e-03  -2.88172809e-03  -2.30191401e-03  -2.30261337e-03  -2.30261337e-03  -2.30261337e-03  5.80590041e-04  7.75957217e-07  1.47531527e-06  1.47531267e-06  1.47531267e-06  5.79114728e-04  6.99355454e-07  2.59884735e-12  1.18394877e-16  3.55292975e-03  3.58907007e-03  3.55890729e-03  3.55891358e-03  3.55891358e-03  3.55891358e-03  3.61403229e-05  5.97754490e-06  5.98383234e-06  5.98383233e-06  5.98383233e-06  3.01564906e-05  6.28743136e-09  1.69135539e-16  4.85722573e-17  -1.05108998e-03  -1.08309469e-03  -1.05300608e-03  -1.05300611e-03  -1.05300611e-03  -1.05300611e-03  3.20047089e-05  1.91609921e-06  1.91612916e-06  1.91612916e-06  1.91612916e-06  3.00885798e-05  2.99474445e-11  1.86482774e-17  4.33680869e-19
7.00870000e-03  -7.35064608e-10  1.50652742e-17  -6.05264593e-18  1.48135564e-18  3.36724557e-18  3.51237484e-18  7.35064623e-10  7.35064602e-10  7.35064610e-10  7.35064612e-10  7.35064612e-10  1.15528994e-17  9.56502077e-18  2.03101920e-18  1.45129276e-19  -2.26581510e-10  -1.69648148e-17  6.66543049e-18  -1.28289231e-18  -3.10483606e-18  -3.45434283e-18  2.26581494e-10  2.26581517e-10  2.26581509e-10  2.26581507e-10  2.26581507e-10  1.35104720e-17  1.01197733e-17  2.17145052e-18  3.49506770e-19  -2.30129843e-03  -2.88192868e-03  -2.30207424e-03  -2.30277365e-03  -2.30277364e-03  -2.30277364e-03  5.80630252e-04  7.75809891e-07  1.47521662e-06  1.47521402e-06  1.47521402e-06  5.79155038e-04  6.99404133e-07  2.59902820e-12  1.17961196e-16  3.55317748e-03  3.58931989e-03  3.55915502e-03  3.55916131e-03  3.55916131e-03  3.55916131e-03  3.61424193e-05  5.97754179e-06  5.98382966e-06  5.98382966e-06  5.98382966e-06  3.01585897e-05  6.28786900e-09  1.69135539e-16  4.90059382e-17  -1.05116327e-03  -1.08317008e-03  -1.05307938e-03  -1.05307941e-03  -1.05307941e-03  -1.05307941e-03  3.20068159e-05  1.91611179e-06  1.91614174e-06  1.91614174e-06  1.91614174e-06  3.00906741e-05  2.99495292e-11  1.86482774e-17  4.33680869e-19
7.14887400e-03  -7.49707735e-10  1.50663227e-17  -6.05306717e-18  1.48145874e-18  3.36747992e-18  3.51261929e-18  7.49707750e-10  7.49707729e-10  7.49707737e-10  7.49707738e-10  7.49707739e-10  1.15537034e-17  9.56568647e-18  2.03116055e-18  1.45139376e-19  -2.31587912e-10  -1.69659955e-17  6.66589438e-18  -1.28298160e-18  -3.10505215e-18  -3.45458325e-18  2.31587895e-10  2.31587919e-10  2.31587911e-10  2.31587909e-10  2.31587909e-10  1.35114122e-17  1.01204776e-17  2.17160165e-18  3.49531094e-19  -2.30145879e-03  -2.88212925e-03  -2.30223446e-03  -2.30293391e-03  -2.30293391e-03  -2.30293391e-03  5.80670460e-04  7.75662307e-07  1.47511772e-06  1.47511512e-06  1.47511512e-06  5.79195345e-04  6.99452810e-07  2.59920904e-12  1.18394877e-16  3.55342518e-03  3.58956970e-03  3.55940272e-03  3.55940901e-03  3.55940901e-03  3.55940901e-03  3.61445155e-05  5.97753865e-06  5.98382695e-06  5.98382695e-06  5.98382695e-06  3.01606886e-05  6.28830662e-09  1.69569220e-16  4.90059382e-17  -1.05123655e-03  -1.08324547e-03  -1.05315267e-03  -1.05315270e-03  -1.05315270e-03  -1.05315270e-03  3.20089226e-05  1.91612431e-06  1.91615426e-06  1.91615426e-06  1.91615426e-06  3.00927683e-05  2.99516135e-11  1.86482774e-17  4.33680869e-19
7.28904800e-03  -7.64348003e-10  1.50673711e-17  -6.05348839e-18  1.48156183e-18  3.36771425e-18  3.51286373e-18  7.64348018e-10  7.64347997e-10  7.64348005e-10  7.64348007e-10  7.64348007e-10  1.15545074e-17  9.56635211e-18  2.03130189e-18  1.45149476e-19  -2.36611872e-10  -1.69671761e-17  6.66635824e-18  -1.28307088e-18  -3.10526822e-18  -3.45482364e-18  2.36611855e-10  2.36611879e-10  2.36611871e-10  2.36611869e-10  2.36611869e-10  1.35123525e-17  1.01211819e-17  2.17175276e-18  3.49555417e-19  -2.30161915e-03  -2.88232981e-03  -2.30239466e-03  -2.30309417e-03  -2.30309416e-03  -2.30309416e-03  5.80710666e-04  7.75514466e-07  1.47501855e-06  1.47501595e-06  1.47501595e-06  5.79235650e-04  6.99501482e-07  2.59938989e-12  1.18394877e-16  3.55367288e-03  3.58981949e-03  3.55965041e-03  3.55965670e-03  3.55965670e-03  3.55965670e-03  3.61466116e-05  5.97753546e-06  5.98382421e-06  5.98382421e-06  5.98382421e-06  3.01627874e-05  6.28874420e-09  1.69569220e-16  4.90059382e-17  -1.05130982e-03  -1.08332085e-03  -1.05322596e-03  -1.05322599e-03  -1.05322599e-03  -1.05322599e-03  3.20110291e-05  1.91613679e-06  1.91616674e-06  1.91616674e-06  1.91616674e-06  3.00948624e-05  2.99536977e-11  1.88651178e-17  4.33680869e-19
7.42922200e-03  -7.78986018e-10  1.50684195e-17  -6.05390957e-18  1.48166492e-18  3.36794857e-18  3.51310814e-18  7.78986033e-10  7.78986012e-10  7.78986020e-10  7.78986021e-10  7.78986022e-10  1.15553113e-17  9.56701772e-18  2.03144323e-18  1.45159575e-19  -2.41653225e-10  -1.69683566e-17  6.66682207e-18  -1.28316015e-18  -3.10548428e-18  -3.45506402e-18  2.41653208e-10  2.41653232e-10  2.41653224e-10  2.41653222e-10  2.41653222e-10  1.35132926e-17  1.01218861e-17  2.17190387e-18  3.49579738e-19  -2.30177949e-03  -2.88253036e-03  -2.30255486e-03  -2.30325441e-03  -2.30325441e-03  -2.30325441e-03  5.80750868e-04  7.75366368e-07  1.47491912e-06  1.47491652e-06  1.47491652e-06  5.79275952e-04  6.99550152e-07  2.59957073e-12  1.18394877e-16  3.55392055e-03  3.59006926e-03  3.55989808e-03  3.55990437e-03  3.55990437e-03  3.55990437e-03  3.61487075e-05  5.97753224e-06  5.98382142e-06  5.98382142e-06  5.98382142e-06  3.01648860e-05  6.28918176e-09  1.69135539e-16  4.85722573e-17  -1.05138309e-03  -1.08339622e-03  -1.05329924e-03  -1.05329927e-03  -1.05329927e-03  -1.05329927e-03  3.20131355e-05  1.91614921e-06  1.91617917e-06  1.91617917e-06  1.91617917e-06  3.00969563e-05  2.99557818e-11  1.88651178e-17  4.33680869e-19
7.56939600e-03  -7.93621705e-10  1.50694677e-17  -6.05433073e-18  1.48176799e-18  3.36818287e-18  3.51335254e-18  7.93621720e-10  7.93621699e-10  7.93621706e-10  7.93621708e-10  7.93621708e-10  1.15561152e-17  9.56768327e-18  2.03158455e-18  1.45169674e-19  -2.46712904e-10  -1.69695371e-17  6.66728586e-18  -1.28324942e-18  -3.10570032e-18  -3.45530438e-18  2.46712887e-10  2.46712910e-10  2.46712902e-10  2.46712900e-10  2.46712900e-10  1.35142327e-17  1.01225902e-17  2.17205496e-18  3.49604058e-19  -2.30193982e-03  -2.88273089e-03  -2.30271504e-03  -2.30341464e-03  -2.30341464e-03  -2.30341464e-03  5.80791067e-04  7.75218015e-07  1.47481943e-06  1.47481683e-06  1.47481683e-06  5.79316251e-04  6.99598818e-07  2.59975158e-12  1.18394877e-16  3.55416821e-03  3.59031901e-03  3.56014574e-03  3.56015203e-03  3.56015203e-03  3.56015203e-03  3.61508031e-05  5.97752898e-06  5.98381860e-06  5.98381860e-06  5.98381860e-06  3.01669845e-05  6.28961928e-09  1.69569220e-16  4.90059382e-17  -1.05145635e-03  -1.08347159e-03  -1.05337251e-03  -1.05337254e-03  -1.05337254e-03  -1.05337254e-03  3.20152416e-05  1.91616158e-06  1.91619154e-06  1.91619154e-06  1.91619154e-06  3.00990501e-05  2.99578658e-11  1.88651178e-17  4.33680869e-19
7.70957000e-03  -8.08254382e-10  1.50705160e-17  -6.05475186e-18  1.48187106e-18  3.36841715e-18  3.51359692e-18  8.08254397e-10  8.08254376e-10  8.08254383e-10  8.08254385e-10  8.08254385e-10  1.15569190e-17  9.56834878e-18  2.03172586e-18  1.45179772e-19  -2.51789822e-10  -1.69707175e-17  6.66774963e-18  -1.28333868e-18  -3.10591635e-18  -3.45554472e-18  2.51789805e-10  2.51789828e-10  2.51789820e-10  2.51789819e-10  2.51789818e-10  1.35151727e-17  1.01232943e-17  2.17220605e-18  3.49628375e-19  -2.30210014e-03  -2.88293141e-03  -2.30287521e-03  -2.30357486e-03  -2.30357486e-03  -2.30357486e-03  5.80831264e-04  7.75069405e-07  1.47471949e-06  1.47471689e-06  1.47471689e-06  5.79356547e-04  6.99647481e-07  2.59993242e-12  1.18394877e-16  3.55441585e-03  3.59056875e-03  3.56039337e-03  3.56039966e-03  3.56039966e-03  3.56039966e-03  3.61528986e-05  5.97752568e-06  5.98381574e-06  5.98381574e-06  5.98381574e-06  3.01690829e-05  6.29005677e-09  1.69135539e-16  4.85722573e-17  -1.05152961e-03  -1.08354696e-03  -1.05344578e-03  -1.05344581e-03  -1.05344581e-03  -1.05344581e-03  3.20173476e-05  1.91617391e-06  1.91620387e-06  1.91620387e-06  1.91620387e-06  3.01011437e-05  2.99599497e-11  1.86482774e-17  4.33680869e-19
7.84974400e-03  -8.22885210e-10  1.50715641e-17  -6.05517296e-18  1.48197412e-18  3.36865142e-18  3.51384129e-18  8.22885225e-10  8.22885204e-10  8.22885211e-10  8.22885213e-10  8.22885213e-10  1.15577228e-17  9.56901424e-18  2.03186717e-18  1.45189869e-19  -2.56884642e-10  -1.69718977e-17  6.66821336e-18  -1.28342793e-18  -3.10613236e-18  -3.45578505e-18  2.56884625e-10  2.56884649e-10  2.56884641e-10  2.56884639e-10  2.56884639e-10  1.35161127e-17  1.01239984e-17  2.17235712e-18  3.49652692e-19  -2.30226045e-03  -2.88313191e-03  -2.30303537e-03  -2.30373507e-03  -2.30373507e-03  -2.30373507e-03  5.80871457e-04  7.74920538e-07  1.47461928e-06  1.47461668e-06  1.47461668e-06  5.79396840e-04  6.99696140e-07  2.60011327e-12  1.18394877e-16  3.55466347e-03  3.59081846e-03  3.56064099e-03  3.56064728e-03  3.56064728e-03  3.56064728e-03  3.61549940e-05  5.97752235e-06  5.98381284e-06  5.98381284e-06  5.98381284e-06  3.01711811e-05  6.29049424e-09  1.69569220e-16  4.90059382e-17  -1.05160286e-03  -1.08362232e-03  -1.05351905e-03  -1.05351908e-03  -1.05351908e-03  -1.05351908e-03  3.20194534e-05  1.91618618e-06  1.91621614e-06  1.91621614e-06  1.91621614e-06  3.01032372e-05  2.99620333e-11  1.86482774e-17  4.33680869e-19
7.98991800e-03  -8.37512906e-10  1.50726121e-17  -6.05559403e-18  1.48207718e-18  3.36888567e-18  3.51408564e-18  8.37512921e-10  8.37512900e-10  8.37512908e-10  8.37512910e-10  8.37512910e-10  1.15585265e-17  9.56967966e-18  2.03200846e-18  1.45199965e-19  -2.61995904e-10  -1.69730779e-17  6.66867706e-18  -1.28351718e-18  -3.10634835e-18  -3.45602536e-18  2.61995887e-10  2.61995911e-10  2.61995903e-10  2.61995901e-10  2.61995901e-10  1.35170526e-17  1.01247024e-17  2.17250818e-18  3.49677006e-19  -2.30242075e-03  -2.88333240e-03  -2.30319552e-03  -2.30389527e-03  -2.30389527e-03  -2.30389527e-03  5.80911647e-04  7.74771416e-07  1.47451881e-06  1.47451621e-06  1.47451621e-06  5.79437130e-04  6.99744796e-07  2.60029411e-12  1.18394877e-16  3.55491108e-03  3.59106817e-03  3.56088860e-03  3.56089489e-03  3.56089489e-03  3.56089489e-03  3.61570891e-05  5.97751897e-06  5.98380991e-06  5.98380991e-06  5.98380991e-06  3.01732792e-05  6.29093167e-09  1.69569220e-16  4.90059382e-17  -1.05167611e-03  -1.08369767e-03  -1.05359231e-03  -1.05359234e-03  -1.05359234e-03  -1.05359234e-03  3.20215589e-05  1.91619840e-06  1.91622837e-06  1.91622837e-06  1.91622837e-06  3.01053306e-05  2.99641167e-11  1.88651178e-17  4.33680869e-19
8.13009200e-03  -8.52138388e-10  1.50736601e-17  -6.05601507e-18  1.48218022e-18  3.36911991e-18  3.51432997e-18  8.52138403e-10  8.52138382e-10  8.52138389e-10  8.52138391e-10  8.52138391e-10  1.15593302e-17  9.57034503e-18  2.03214974e-18  1.45210061e-19  -2.67125336e-10  -1.69742581e-17  6.66914072e-18  -1.28360642e-18  -3.10656434e-18  -3.45626566e-18  2.67125319e-10  2.67125342e-10  2.67125334e-10  2.67125333e-10  2.67125332e-10  1.35179924e-17  1.01254064e-17  2.17265923e-18  3.49701319e-19  -2.30258104e-03  -2.88353287e-03  -2.30335566e-03  -2.30405546e-03  -2.30405546e-03  -2.30405546e-03  5.80951834e-04  7.74622038e-07  1.47441809e-06  1.47441549e-06  1.47441549e-06  5.79477418e-04  6.99793449e-07  2.60047452e-12  1.18394877e-16  3.55515867e-03  3.59131785e-03  3.56113618e-03  3.56114247e-03  3.56114247e-03  3.56114247e-03  3.61591840e-05  5.97751556e-06  5.98380693e-06  5.98380693e-06  5.98380693e-06  3.01753771e-05  6.29136907e-09  1.69135539e-16  4.85722573e-17  -1.05174935e-03  -1.08377302e-03  -1.05366556e-03  -1.05366559e-03  -1.05366559e-03  -1.05366559e-03  3.20236643e-05  1.91621058e-06  1.91624054e-06  1.91624054e-06  1.91624054e-06  3.01074238e-05  2.99662003e-11  1.86482774e-17  4.33680869e-19
8.27026600e-03  -8.66761130e-10  1.50747080e-17  -6.05643608e-18  1.48228326e-18  3.36935413e-18  3.51457428e-18  8.66761145e-10  8.66761124e-10  8.66761131e-10  8.66761133e-10  8.66761133e-10  1.15601338e-17  9.57101036e-18  2.03229102e-18  1.45220155e-19  -2.72271816e-10  -1.69754381e-17  6.66960436e-18  -1.28369566e-18  -3.10678030e-18  -3.45650593e-18  2.72271799e-10  2.72271823e-10  2.72271815e-10  2.72271813e-10  2.72271813e-10  1.35189322e-17  1.01261103e-17  2.17281028e-18  3.49725630e-19  -2.30274132e-03  -2.88373334e-03  -2.30351579e-03  -2.30421564e-03  -2.30421563e-03  -2.30421563e-03  5.80992018e-04  7.74472403e-07  1.47431710e-06  1.47431450e-06  1.47431450e-06  5.79517703e-04  6.99842098e-07  2.60065580e-12  1.18394877e-16  3.55540624e-03  3.59156752e-03  3.56138375e-03  3.56139004e-03  3.56139004e-03  3.56139004e-03  3.61612788e-05  5.97751211e-06  5.98380392e-06  5.98380392e-06  5.98380392e-06  3.01774749e-05  6.29180645e-09  1.69135539e-16  4.85722573e-17  -1.05182259e-03  -1.08384836e-03  -1.05373881e-03  -1.05373884e-03  -1.05373884e-03  -1.05373884e-03  3.20257695e-05  1.91622270e-06  1.91625267e-06  1.91625267e-06  1.91625267e-06  3.01095168e-05  2.99682835e-11  1.86482774e-17  4.33680869e-19
8.41044000e-03  -8.81380973e-10  1.50757559e-17  -6.05685706e-18  1.48238630e-18  3.36958833e-18  3.51481858e-18  8.81380988e-10  8.81380967e-10  8.81380975e-10  8.81380977e-10  8.81380977e-10  1.15609373e-17  9.57167563e-18  2.03243228e-18  1.45230250e-19  -2.77435616e-10  -1.69766181e-17  6.67006796e-18  -1.28378489e-18  -3.10699625e-18  -3.45674619e-18  2.77435599e-10  2.77435623e-10  2.77435615e-10  2.77435613e-10  2.77435613e-10  1.35198719e-17  1.01268142e-17  2.17296131e-18  3.49749939e-19  -2.30290158e-03  -2.88393378e-03  -2.30367591e-03  -2.30437580e-03  -2.30437580e-03  -2.30437580e-03  5.81032198e-04  7.74322515e-07  1.47421586e-06  1.47421326e-06  1.47421326e-06  5.79557985e-04  6.99890744e-07  2.60083665e-12  1.18394877e-16  3.55565379e-03  3.59181716e-03  3.56163130e-03  3.56163759e-03  3.56163759e-03  3.56163759e-03  3.61633734e-05  5.97750863e-06  5.98380087e-06  5.98380087e-06  5.98380087e-06  3.01795725e-05  6.29224379e-09  1.69569220e-16  4.85722573e-17  -1.05189583e-03  -1.08392370e-03  -1.05381206e-03  -1.05381209e-03  -1.05381209e-03  -1.05381209e-03  3.20278744e-05  1.91623477e-06  1.91626474e-06  1.91626474e-06  1.91626474e-06  3.01116097e-05  2.99703667e-11  1.86482774e-17  4.33680869e-19
8.55061400e-03  -8.95998602e-10  1.50768036e-17  -6.05727801e-18  1.48248932e-18  3.36982251e-18  3.51506286e-18  8.95998617e-10  8.95998596e-10  8.95998603e-10  8.95998605e-10  8.95998605e-10  1.15617408e-17  9.57234087e-18  2.03257353e-18  1.45240343e-19  -2.82616913e-10  -1.69777979e-17  6.67053153e-18  -1.28387411e-18  -3.10721219e-18  -3.45698644e-18  2.82616896e-10  2.82616919e-10  2.82616911e-10  2.82616909e-10  2.82616909e-10  1.35208115e-17  1.01275180e-17  2.17311233e-18  3.49774247e-19  -2.30306184e-03  -2.88413422e-03  -2.30383601e-03  -2.30453595e-03  -2.30453595e-03  -2.30453595e-03  5.81072376e-04  7.74172371e-07  1.47411436e-06  1.47411176e-06  1.47411176e-06  5.79598264e-04  6.99939386e-07  2.60101706e-12  1.18828558e-16  3.55590133e-03  3.59206680e-03  3.56187883e-03  3.56188513e-03  3.56188513e-03  3.56188513e-03  3.61654678e-05  5.97750510e-06  5.98379779e-06  5.98379779e-06  5.98379779e-06  3.01816700e-05  6.29268110e-09  1.69569220e-16  4.90059382e-17  -1.05196905e-03  -1.08399903e-03  -1.05388530e-03  -1.05388533e-03  -1.05388533e-03  -1.05388533e-03  3.20299792e-05  1.91624679e-06  1.91627676e-06  1.91627676e-06  1.91627676e-06  3.01137025e-05  2.99724494e-11  1.88651178e-17  4.33680869e-19
8.69078800e-03  -9.10613352e-10  1.50778513e-17  -6.05769893e-18  1.48259234e-18  3.37005668e-18  3.51530712e-18  9.10613367e-10  9.10613346e-10  9.10613354e-10  9.10613355e-10  9.10613356e-10  1.15625442e-17  9.57300605e-18  2.03271478e-18  1.45250436e-19  -2.87815036e-10  -1.69789777e-17  6.67099507e-18  -1.28396333e-18  -3.10742811e-18  -3.45722666e-18  2.87815019e-10  2.87815042e-10  2.87815034e-10  2.87815033e-10  2.87815032e-10  1.35217511e-17  1.01282217e-17  2.17326334e-18  3.49798553e-19  -2.30322209e-03  -2.88433464e-03  -2.30399611e-03  -2.30469610e-03  -2.30469610e-03  -2.30469610e-03  5.81112551e-04  7.74021971e-07  1.47401260e-06  1.47401000e-06  1.47401000e-06  5.79638541e-04  6.99988025e-07  2.60119790e-12  1.18394877e-16  3.55614885e-03  3.59231641e-03  3.56212635e-03  3.56213264e-03  3.56213264e-03  3.56213264e-03  3.61675620e-05  5.97750154e-06  5.98379466e-06  5.98379466e-06  5.98379466e-06  3.01837673e-05  6.29311838e-09  1.69569220e-16  4.90059382e-17  -1.05204228e-03  -1.08407436e-03  -1.05395853e-03  -1.05395856e-03  -1.05395856e-03  -1.05395856e-03  3.20320838e-05  1.91625876e-06  1.91628874e-06  1.91628874e-06  1.91628874e-06  3.01157951e-05  2.99745322e-11  1.88651178e-17  4.33680869e-19
8.83096200e-03  -9.25225663e-10  1.50788990e-17  -6.05811982e-18  1.48269535e-18  3.37029084e-18  3.51555137e-18  9.25225679e-10  9.25225657e-10  9.25225665e-10  9.25225667e-10  9.25225667e-10  1.15633476e-17  9.57367119e-18  2.03285601e-18  1.45260528e-19  -2.93030558e-10  -1.69801574e-17  6.67145857e-18  -1.28405254e-18  -3.10764402e-18  -3.45746688e-18  2.93030541e-10  2.93030565e-10  2.93030557e-10  2.93030555e-10  2.93030555e-10  1.35226906e-17  1.01289254e-17  2.17341434e-18  3.49822857e-19  -2.30338232e-03  -2.88453504e-03  -2.30415619e-03  -2.30485623e-03  -2.30485623e-03  -2.30485623e-03  5.81152723e-04  7.73871317e-07  1.47391058e-06  1.47390798e-06  1.47390798e-06  5.79678815e-04  7.00036661e-07  2.60137831e-12  1.18394877e-16  3.55639635e-03  3.59256601e-03  3.56237385e-03  3.56238014e-03  3.56238014e-03  3.56238014e-03  3.61696560e-05  5.97749794e-06  5.98379150e-06  5.98379150e-06  5.98379150e-06  3.01858645e-05  6.29355563e-09  1.69569220e-16  4.85722573e-17  -1.05211549e-03  -1.08414968e-03  -1.05403176e-03  -1.05403179e-03  -1.05403179e-03  -1.05403179e-03  3.20341882e-05  1.91627068e-06  1.91630066e-06  1.91630066e-06  1.91630066e-06  3.01178875e-05  2.99766149e-11  1.88651178e-17  4.33680869e-19
8.97113600e-03  -9.39834620e-10  1.50799465e-17  -6.05854069e-18  1.48279836e-18  3.37052498e-18  3.51579560e-18  9.39834635e-10  9.39834614e-10  9.39834621e-10  9.39834623e-10  9.39834623e-10  1.15641509e-17  9.57433628e-18  2.03299724e-18  1.45270619e-19  -2.98262672e-10  -1.69813371e-17  6.67192205e-18  -1.28414174e-18  -3.10785991e-18  -3.45770707e-18  2.98262655e-10  2.98262678e-10  2.98262670e-10  2.98262668e-10  2.98262668e-10  1.35236300e-17  1.01296291e-17  2.17356533e-18  3.49847159e-19  -2.30354254e-03  -2.88473543e-03  -2.30431626e-03  -2.30501635e-03  -2.30501635e-03  -2.30501635e-03  5.81192891e-04  7.73720409e-07  1.47380830e-06  1.47380570e-06  1.47380570e-06  5.79719086e-04  7.00085293e-07  2.60155916e-12  1.18394877e-16  3.55664384e-03  3.59281559e-03  3.56262133e-03  3.56262762e-03  3.56262762e-03  3.56262762e-03  3.61717498e-05  5.97749430e-06  5.98378830e-06  5.98378830e-06  5.98378830e-06  3.01879615e-05  6.29399285e-09  1.69569220e-16  4.90059382e-17  -1.05218871e-03  -1.08422500e-03  -1.05410499e-03  -1.05410502e-03  -1.05410502e-03  -1.05410502e-03  3.20362924e-05  1.91628256e-06  1.91631253e-06  1.91631253e-06  1.91631253e-06  3.01199799e-05  2.99786975e-11  1.88651178e-17  4.33680869e-19
9.11131000e-03  -9.54441269e-10  1.50809940e-17  -6.05896152e-18  1.48290136e-18  3.37075910e-18  3.51603981e-18  9.54441284e-10  9.54441263e-10  9.54441271e-10  9.54441272e-10  9.54441273e-10  1.15649542e-17  9.57500133e-18  2.03313845e-18  1.45280710e-19  -3.03512115e-10  -1.69825166e-17  6.67238549e-18  -1.28423094e-18  -3.10807579e-18  -3.45794725e-18  3.03512098e-10  3.03512121e-10  3.03512113e-10  3.03512112e-10  3.03512111e-10  1.35245694e-17  1.01303327e-17  2.17371631e-18  3.49871460e-19  -2.30370275e-03  -2.88493581e-03  -2.30447632e-03  -2.30517646e-03  -2.30517646e-03  -2.30517646e-03  5.81233057e-04  7.73569246e-07  1.47370577e-06  1.47370317e-06  1.47370317e-06  5.79759354e-04  7.00133922e-07  2.60174000e-12  1.18394877e-16  3.55689130e-03  3.59306515e-03  3.56286879e-03  3.56287509e-03  3.56287509e-03  3.56287509e-03  3.61738435e-05  5.97749063e-06  5.98378506e-06  5.98378506e-06  5.98378506e-06  3.01900584e-05  6.29443004e-09  1.69569220e-16  4.85722573e-17  -1.05226191e-03  -1.08430031e-03  -1.05417821e-03  -1.05417824e-03  -1.05417824e-03  -1.05417824e-03  3.20383964e-05  1.91629438e-06  1.91632436e-06  1.91632436e-06  1.91632436e-06  3.01220720e-05  2.99807798e-11  1.88651178e-17  4.33680869e-19
9.25148400e-03  -9.69045072e-10  1.50820414e-17  -6.05938233e-18  1.48300435e-18  3.37099320e-18  3.51628400e-18  9.69045087e-10  9.69045066e-10  9.69045073e-10  9.69045075e-10  9.69045075e-10  1.15657574e-17  9.57566633e-18  2.03327966e-18  1.45290800e-19  -3.08778905e-10  -1.69836961e-17  6.67284890e-18  -1.28432013e-18  -3.10829165e-18  -3.45818741e-18  3.08778888e-10  3.08778912e-10  3.08778904e-10  3.08778902e-10  3.08778902e-10  1.35255087e-17  1.01310363e-17  2.17386728e-18  3.49895759e-19  -2.30386296e-03  -2.88513618e-03  -2.30463637e-03  -2.30533656e-03  -2.30533656e-03  -2.30533656e-03  5.81273219e-04  7.73417829e-07  1.47360298e-06  1.47360038e-06  1.47360038e-06  5.79799619e-04  7.00182548e-07  2.60192085e-12  1.18394877e-16  3.55713876e-03  3.59331469e-03  3.56311624e-03  3.56312254e-03  3.56312254e-03  3.56312254e-03  3.61759370e-05  5.97748691e-06  5.98378178e-06  5.98378178e-06  5.98378178e-06  3.01921552e-05  6.29486720e-09  1.69569220e-16  4.90059382e-17  -1.05233512e-03  -1.08437562e-03  -1.05425142e-03  -1.05425145e-03  -1.05425145e-03  -1.05425145e-03  3.20405002e-05  1.91630615e-06  1.91633613e-06  1.91633613e-06  1.91633613e-06  3.01241641e-05  2.99828621e-11  1.86482774e-17  4.33680869e-19
9.39165800e-03  -9.83646059e-10  1.50830887e-17  -6.05980311e-18  1.48310733e-18  3.37122729e-18  3.51652818e-18  9.83646074e-10  9.83646053e-10  9.83646060e-10  9.83646062e-10  9.83646062e-10  1.15665605e-17  9.57633129e-18  2.03342085e-18  1.45300889e-19  -3.14062474e-10  -1.69848755e-17  6.67331227e-18  -1.28440932e-18  -3.10850749e-18  -3.45842755e-18  3.14062457e-10  3.14062481e-10  3.14062473e-10  3.14062471e-10  3.14062470e-10  1.35264479e-17  1.01317398e-17  2.17401823e-18  3.49920057e-19  -2.30402315e-03  -2.88533653e-03  -2.30479641e-03  -2.30549665e-03  -2.30549664e-03  -2.30549664e-03  5.81313379e-04  7.73266158e-07  1.47349993e-06  1.47349733e-06  1.47349733e-06  5.79839881e-04  7.00231170e-07  2.60210126e-12  1.18394877e-16  3.55738619e-03  3.59356422e-03  3.56336367e-03  3.56336997e-03  3.56336997e-03  3.56336997e-03  3.61780303e-05  5.97748316e-06  5.98377846e-06  5.98377846e-06  5.98377846e-06  3.01942518e-05  6.29530433e-09  1.69135539e-16  4.85722573e-17  -1.05240832e-03  -1.08445092e-03  -1.05432463e-03  -1.05432466e-03  -1.05432466e-03  -1.05432466e-03  3.20426038e-05  1.91631787e-06  1.91634786e-06  1.91634786e-06  1.91634786e-06  3.01262560e-05  2.99849442e-11  1.86482774e-17  4.33680869e-19
9.53183200e-03  -9.98244331e-10  1.50841360e-17  -6.06022385e-18  1.48321030e-18  3.37146136e-18  3.51677234e-18  9.98244346e-10  9.98244325e-10  9.98244332e-10  9.98244334e-10  9.98244334e-10  1.15673636e-17  9.57699620e-18  2.03356204e-18  1.45310978e-19  -3.19362339e-10  -1.69860548e-17  6.67377562e-18  -1.28449850e-18  -3.10872333e-18  -3.45866768e-18  3.19362322e-10  3.19362345e-10  3.19362337e-10  3.19362336e-10  3.19362335e-10  1.35273871e-17  1.01324433e-17  2.17416918e-18  3.49944353e-19  -2.30418333e-03  -2.88553686e-03  -2.30495644e-03  -2.30565672e-03  -2.30565672e-03  -2.30565672e-03  5.81353535e-04  7.73114233e-07  1.47339662e-06  1.47339402e-06  1.47339402e-06  5.79880141e-04  7.00279789e-07  2.60228211e-12  1.18394877e-16  3.55763361e-03  3.59381373e-03  3.56361109e-03  3.56361738e-03  3.56361738e-03  3.56361738e-03  3.61801234e-05  5.97747937e-06  5.98377511e-06  5.98377511e-06  5.98377511e-06  3.01963483e-05  6.29574143e-09  1.69569220e-16  4.85722573e-17  -1.05248151e-03  -1.08452621e-03  -1.05439784e-03  -1.05439787e-03  -1.05439787e-03  -1.05439787e-03  3.20447072e-05  1.91632954e-06  1.91635953e-06  1.91635953e-06  1.91635953e-06  3.01283477e-05  2.99870261e-11  1.86482774e-17  4.33680869e-19
9.67200600e-03  -1.01283982e-09  1.50851831e-17  -6.06064457e-18  1.48331327e-18  3.37169542e-18  3.51701649e-18  1.01283984e-09  1.01283981e-09  1.01283982e-09  1.01283982e-09  1.01283982e-09  1.15681667e-17  9.57766106e-18  2.03370321e-18  1.45321066e-19  -3.24679693e-10  -1.69872340e-17  6.67423893e-18  -1.28458767e-18  -3.10893914e-18  -3.45890779e-18  3.24679676e-10  3.24679700e-10  3.24679692e-10  3.24679690e-10  3.24679689e-10  1.35283262e-17  1.01331467e-17  2.17432012e-18  3.49968647e-19  -2.30434349e-03  -2.88573718e-03  -2.30511646e-03  -2.30581679e-03  -2.30581679e-03  -2.30581679e-03  5.81393689e-04  7.72962055e-07  1.47329306e-06  1.47329046e-06  1.47329046e-06  5.79920398e-04  7.00328404e-07  2.60246252e-12  1.18394877e-16  3.55788101e-03  3.59406322e-03  3.56385848e-03  3.56386478e-03  3.56386478e-03  3.56386478e-03  3.61822163e-05  5.97747554e-06  5.98377171e-06  5.98377171e-06  5.98377171e-06  3.01984446e-05  6.29617849e-09  1.69569220e-16  4.90059382e-17  -1.05255470e-03  -1.08460151e-03  -1.05447104e-03  -1.05447107e-03  -1.05447107e-03  -1.05447107e-03  3.20468105e-05  1.91634117e-06  1.91637115e-06  1.91637115e-06  1.91637115e-06  3.01304393e-05  2.99891078e-11  1.86482774e-17  4.33680869e-19
9.81218000e-03  -1.02743209e-09  1.50862303e-17  -6.06106526e-18  1.48341623e-18  3.37192946e-18  3.51726061e-18  1.02743210e-09  1.02743208e-09  1.02743209e-09  1.02743209e-09  1.02743209e-09  1.15689696e-17  9.57832587e-18  2.03384438e-18  1.45331153e-19  -3.30013343e-10  -1.69884131e-17  6.67470221e-18  -1.28467684e-18  -3.10915494e-18  -3.45914788e-18  3.30013326e-10  3.30013350e-10  3.30013342e-10  3.30013340e-10  3.30013340e-10  1.35292652e-17  1.01338501e-17  2.17447104e-18  3.49992939e-19  -2.30450365e-03  -2.88593749e-03  -2.30527646e-03  -2.30597684e-03  -2.30597684e-03  -2.30597684e-03  5.81433839e-04  7.72809623e-07  1.47318924e-06  1.47318664e-06  1.47318664e-06  5.79960652e-04  7.00377016e-07  2.60264336e-12  1.18394877e-16  3.55812839e-03  3.59431270e-03  3.56410586e-03  3.56411216e-03  3.56411216e-03  3.56411216e-03  3.61843090e-05  5.97747167e-06  5.98376828e-06  5.98376828e-06  5.98376828e-06  3.02005408e-05  6.29661553e-09  1.69569220e-16  4.90059382e-17  -1.05262788e-03  -1.08467679e-03  -1.05454423e-03  -1.05454426e-03  -1.05454426e-03  -1.05454426e-03  3.20489135e-05  1.91635274e-06  1.91638273e-06  1.91638273e-06  1.91638273e-06  3.01325307e-05  2.99911894e-11  1.88651178e-17  4.33680869e-19
9.95235400e-03  -1.04202139e-09  1.50872773e-17  -6.06148592e-18  1.48351919e-18  3.37216349e-18  3.51750472e-18  1.04202140e-09  1.04202138e-09  1.04202139e-09  1.04202139e-09  1.04202139e-09  1.15697726e-17  9.57899064e-18  2.03398554e-18  1.45341240e-19  -3.35363983e-10  -1.69895922e-17  6.67516546e-18  -1.28476600e-18  -3.10937073e-18  -3.45938796e-18  3.35363966e-10  3.35363990e-10  3.35363982e-10  3.35363980e-10  3.35363980e-10  1.35302042e-17  1.01345534e-17  2.17462196e-18  3.50017230e-19  -2.30466380e-03  -2.88613779e-03  -2.30543646e-03  -2.30613688e-03  -2.30613688e-03  -2.30613688e-03  5.81473986e-04  7.72656938e-07  1.47308517e-06  1.47308256e-06  1.47308256e-06  5.80000904e-04  7.00425625e-07  2.60282421e-12  1.18394877e-16  3.55837575e-03  3.59456216e-03  3.56435322e-03  3.56435952e-03  3.56435952e-03  3.56435952e-03  3.61864016e-05  5.97746776e-06  5.98376481e-06  5.98376481e-06  5.98376481e-06  3.02026368e-05  6.29705254e-09  1.69569220e-16  4.85722573e-17  -1.05270106e-03  -1.08475207e-03  -1.05461742e-03  -1.05461745e-03  -1.05461745e-03  -1.05461745e-03  3.20510163e-05  1.91636426e-06  1.91639426e-06  1.91639426e-06  1.91639426e-06  3.01346221e-05  2.99932709e-11  1.86482774e-17  4.33680869e-19
1.00925280e-02  -1.05660783e-09  1.50883243e-17  -6.06190655e-18  1.48362214e-18  3.37239749e-18  3.51774882e-18  1.05660785e-09  1.05660783e-09  1.05660784e-09  1.05660784e-09  1.05660784e-09  1.15705754e-17  9.57965537e-18  2.03412668e-18  1.45351325e-19  -3.40731148e-10  -1.69907712e-17  6.67562868e-18  -1.28485515e-18  -3.10958650e-18  -3.45962802e-18  3.40731131e-10  3.40731155e-10  3.40731147e-10  3.40731145e-10  3.40731145e-10  1.35311431e-17  1.01352567e-17  2.17477287e-18  3.50041519e-19  -2.30482394e-03  -2.88633807e-03  -2.30559644e-03  -2.30629692e-03  -2.30629691e-03  -2.30629691e-03  5.81514130e-04  7.72504000e-07  1.47298083e-06  1.47297823e-06  1.47297823e-06  5.80041152e-04  7.00474230e-07  2.60300462e-12  1.18394877e-16  3.55862310e-03  3.59481160e-03  3.56460057e-03  3.56460686e-03  3.56460686e-03  3.56460686e-03  3.61884940e-05  5.97746381e-06  5.98376130e-06  5.98376130e-06  5.98376130e-06  3.02047327e-05  6.29748952e-09  1.69569220e-16  4.85722573e-17  -1.05277423e-03  -1.08482735e-03  -1.05469060e-03  -1.05469063e-03  -1.05469063e-03  -1.05469063e-03  3.20531189e-05  1.91637573e-06  1.91640573e-06  1.91640573e-06  1.91640573e-06  3.01367132e-05  2.99953523e-11  1.86482774e-17  4.33680869e-19
1.02327020e-02  -1.07119149e-09  1.50893711e-17  -6.06232715e-18  1.48372508e-18  3.37263148e-18  3.51799289e-18  1.07119150e-09  1.07119148e-09  1.07119149e-09  1.07119149e-09  1.07119149e-09  1.15713783e-17  9.58032005e-18  2.03426782e-18  1.45361411e-19  -3.46114817e-10  -1.69919501e-17  6.67609186e-18  -1.28494430e-18  -3.10980226e-18  -3.45986806e-18  3.46114800e-10  3.46114824e-10  3.46114816e-10  3.46114814e-10  3.46114814e-10  1.35320820e-17  1.01359599e-17  2.17492376e-18  3.50065807e-19  -2.30498406e-03  -2.88653833e-03  -2.30575641e-03  -2.30645694e-03  -2.30645694e-03  -2.30645694e-03  5.81554272e-04  7.72350809e-07  1.47287624e-06  1.47287364e-06  1.47287364e-06  5.80081398e-04  7.00522832e-07  2.60318546e-12  1.18394877e-16  3.55887043e-03  3.59506102e-03  3.56484789e-03  3.56485419e-03  3.56485419e-03  3.56485419e-03  3.61905861e-05  5.97745983e-06  5.98375775e-06  5.98375775e-06  5.98375775e-06  3.02068284e-05  6.29792646e-09  1.69569220e-16  4.85722573e-17  -1.05284740e-03  -1.08490262e-03  -1.05476378e-03  -1.05476381e-03  -1.05476381e-03  -1.05476381e-03  3.20552214e-05  1.91638716e-06  1.91641716e-06  1.91641716e-06  1.91641716e-06  3.01388042e-05  2.99974336e-11  1.86482774e-17  4.33680869e-19
1.03728760e-02  -1.08577214e-09  1.50904180e-17  -6.06274772e-18  1.48382801e-18  3.37286546e-18  3.51823695e-18  1.08577216e-09  1.08577214e-09  1.08577215e-09  1.08577215e-09  1.08577215e-09  1.15721810e-17  9.58098468e-18  2.03440895e-18  1.45371495e-19  -3.51515209e-10  -1.69931289e-17  6.67655501e-18  -1.28503345e-18  -3.11001800e-18  -3.46010809e-18  3.51515192e-10  3.51515216e-10  3.51515208e-10  3.51515206e-10  3.51515206e-10  1.35330208e-17  1.01366631e-17  2.17507465e-18  3.50090092e-19  -2.30514418e-03  -2.88673859e-03  -2.30591637e-03  -2.30661695e-03  -2.30661694e-03  -2.30661694e-03  5.81594410e-04  7.72197365e-07  1.47277140e-06  1.47276880e-06  1.47276880e-06  5.80121641e-04  7.00571430e-07  2.60336587e-12  1.18394877e-16  3.55911775e-03  3.59531043e-03  3.56509520e-03  3.56510150e-03  3.56510150e-03  3.56510150e-03  3.61926781e-05  5.97745580e-06  5.98375417e-06  5.98375417e-06  5.98375417e-06  3.02089240e-05  6.29836338e-09  1.69569220e-16  4.85722573e-17  -1.05292056e-03  -1.08497788e-03  -1.05483696e-03  -1.05483699e-03  -1.05483699e-03  -1.05483699e-03  3.20573236e-05  1.91639853e-06  1.91642853e-06  1.91642853e-06  1.91642853e-06  3.01408951e-05  2.99995146e-11  1.88651178e-17  4.33680869e-19
1.05130500e-02  -1.10034982e-09  1.50914647e-17  -6.06316827e-18  1.48393094e-18  3.37309942e-18  3.51848100e-18  1.10034983e-09  1.10034981e-09  1.10034982e-09  1.10034982e-09  1.10034982e-09  1.15729837e-17  9.58164926e-18  2.03455006e-18  1.45381579e-19  -3.56932185e-10  -1.69943076e-17  6.67701813e-18  -1.28512258e-18  -3.11023373e-18  -3.46034810e-18  3.56932168e-10  3.56932192e-10  3.56932184e-10  3.56932182e-10  3.56932182e-10  1.35339595e-17  1.01373662e-17  2.17522552e-18  3.50114376e-19  -2.30530428e-03  -2.88693882e-03  -2.30607632e-03  -2.30677695e-03  -2.30677694e-03  -2.30677694e-03  5.81634545e-04  7.72043668e-07  1.47266630e-06  1.47266369e-06  1.47266369e-06  5.80161881e-04  7.00620026e-07  2.60354628e-12  1.18828558e-16  3.55936505e-03  3.59555982e-03  3.56534250e-03  3.56534880e-03  3.56534880e-03  3.56534880e-03  3.61947700e-05  5.97745174e-06  5.98375054e-06  5.98375054e-06  5.98375054e-06  3.02110194e-05  6.29880027e-09  1.69569220e-16  4.90059382e-17  -1.05299372e-03  -1.08505314e-03  -1.05491013e-03  -1.05491016e-03  -1.05491016e-03  -1.05491016e-03  3.20594257e-05  1.91640986e-06  1.91643986e-06  1.91643986e-06  1.91643986e-06  3.01429858e-05  3.00015954e-11  1.86482774e-17  4.33680869e-19
1.06532240e-02  -1.11492438e-09  1.50925114e-17  -6.06358878e-18  1.48403385e-18  3.37333336e-18  3.51872502e-18  1.11492439e-09  1.11492437e-09  1.11492438e-09  1.11492438e-09  1.11492438e-09  1.15737864e-17  9.58231380e-18  2.03469117e-18  1.45391662e-19  -3.62365318e-10  -1.69954862e-17  6.67748122e-18  -1.28521171e-18  -3.11044944e-18  -3.46058810e-18  3.62365301e-10  3.62365325e-10  3.62365317e-10  3.62365315e-10  3.62365315e-10  1.35348981e-17  1.01380693e-17  2.17537638e-18  3.50138659e-19  -2.30546437e-03  -2.88713905e-03  -2.30623626e-03  -2.30693693e-03  -2.30693693e-03  -2.30693693e-03  5.81674677e-04  7.71889720e-07  1.47256094e-06  1.47255834e-06  1.47255834e-06  5.80202118e-04  7.00668617e-07  2.60372670e-12  1.18828558e-16  3.55961233e-03  3.59580919e-03  3.56558977e-03  3.56559607e-03  3.56559607e-03  3.56559607e-03  3.61968616e-05  5.97744764e-06  5.98374688e-06  5.98374688e-06  5.98374688e-06  3.02131147e-05  6.29923712e-09  1.69569220e-16  4.85722573e-17  -1.05306687e-03  -1.08512840e-03  -1.05498329e-03  -1.05498332e-03  -1.05498332e-03  -1.05498332e-03  3.20615275e-05  1.91642113e-06  1.91645114e-06  1.91645114e-06  1.91645114e-06  3.01450764e-05  3.00036762e-11  1.88651178e-17  4.33680869e-19
1.07933980e-02  -1.12949578e-09  1.50935580e-17  -6.06400926e-18  1.48413677e-18  3.37356729e-18  3.51896903e-18  1.12949580e-09  1.12949578e-09  1.12949578e-09  1.12949579e-09  1.12949579e-09  1.15745890e-17  9.58297830e-18  2.03483227e-18  1.45401744e-19  -3.67815545e-10  -1.69966648e-17  6.67794427e-18  -1.28530084e-18  -3.11066513e-18  -3.46082807e-18  3.67815528e-10  3.67815552e-10  3.67815544e-10  3.67815542e-10  3.67815542e-10  1.35358367e-17  1.01387723e-17  2.17552724e-18  3.50162939e-19  -2.30562445e-03  -2.88733926e-03  -2.30639619e-03  -2.30709691e-03  -2.30709691e-03  -2.30709691e-03  5.81714806e-04  7.71735520e-07  1.47245533e-06  1.47245273e-06  1.47245273e-06  5.80242353e-04  7.00717206e-07  2.60390754e-12  1.18394877e-16  3.55985959e-03  3.59605854e-03  3.56583703e-03  3.56584333e-03  3.56584333e-03  3.56584333e-03  3.61989530e-05  5.97744350e-06  5.98374317e-06  5.98374317e-06  5.98374317e-06  3.02152099e-05  6.29967395e-09  1.69569220e-16  4.85722573e-17  -1.05314002e-03  -1.08520364e-03  -1.05505645e-03  -1.05505648e-03  -1.05505648e-03  -1.05505648e-03  3.20636292e-05  1.91643236e-06  1.91646237e-06  1.91646237e-06  1.91646237e-06  3.01471668e-05  3.00057568e-11  1.86482774e-17  4.33680869e-19
1.09335720e-02  -1.14406399e-09  1.50946045e-17  -6.06442972e-18  1.48423967e-18  3.37380120e-18  3.51921302e-18  1.14406400e-09  1.14406398e-09  1.14406399e-09  1.14406399e-09  1.14406399e-09  1.15753915e-17  9.58364274e-18  2.03497335e-18  1.45411826e-19  -3.73281444e-10  -1.69978433e-17  6.67840730e-18  -1.28538995e-18  -3.11088082e-18  -3.46106803e-18  3.73281427e-10  3.73281451e-10  3.73281443e-10  3.73281441e-10  3.73281440e-10  1.35367753e-17  1.01394753e-17  2.17567808e-18  3.50187218e-19  -2.30578453e-03  -2.88753946e-03  -2.30655611e-03  -2.30725688e-03  -2.30725687e-03  -2.30725687e-03  5.81754932e-04  7.71581068e-07  1.47234946e-06  1.47234686e-06  1.47234686e-06  5.80282585e-04  7.00765791e-07  2.60408839e-12  1.18394877e-16  3.56010683e-03  3.59630788e-03  3.56608427e-03  3.56609057e-03  3.56609057e-03  3.56609057e-03  3.62010443e-05  5.97743932e-06  5.98373943e-06  5.98373943e-06  5.98373943e-06  3.02173049e-05  6.30011074e-09  1.70002901e-16  4.90059382e-17  -1.05321316e-03  -1.08527889e-03  -1.05512960e-03  -1.05512963e-03  -1.05512963e-03  -1.05512963e-03  3.20657307e-05  1.91644354e-06  1.91647354e-06  1.91647354e-06  1.91647354e-06  3.01492571e-05  3.00078374e-11  1.86482774e-17  4.33680869e-19
1.10737460e-02  -1.15862916e-09  1.50956510e-17  -6.06485014e-18  1.48434257e-18  3.37403509e-18  3.51945700e-18  1.15862917e-09  1.15862915e-09  1.15862916e-09  1.15862916e-09  1.15862916e-09  1.15761940e-17  9.58430714e-18  2.03511443e-18  1.45421906e-19  -3.78763899e-10  -1.69990217e-17  6.67887029e-18  -1.28547907e-18  -3.11109648e-18  -3.46130798e-18  3.78763882e-10  3.78763905e-10  3.78763897e-10  3.78763896e-10  3.78763895e-10  1.35377137e-17  1.01401783e-17  2.17582891e-18  3.50211496e-19  -2.30594459e-03  -2.88773964e-03  -2.30671601e-03  -2.30741683e-03  -2.30741683e-03  -2.30741683e-03  5.81795055e-04  7.71426365e-07  1.47224334e-06  1.47224074e-06  1.47224074e-06  5.80322814e-04  7.00814373e-07  2.60426880e-12  1.18394877e-16  3.56035406e-03  3.59655720e-03  3.56633150e-03  3.56633780e-03  3.56633780e-03  3.56633780e-03  3.62031354e-05  5.97743510e-06  5.98373565e-06  5.98373565e-06  5.98373565e-06  3.02193997e-05  6.30054751e-09  1.69569220e-16  4.85722573e-17  -1.05328630e-03  -1.08535413e-03  -1.05520275e-03  -1.05520278e-03  -1.05520278e-03  -1.05520278e-03  3.20678319e-05  1.91645466e-06  1.91648467e-06  1.91648467e-06  1.91648467e-06  3.01513473e-05  3.00099177e-11  1.88651178e-17  4.33680869e-19
1.12139200e-02  -1.17319090e-09  1.50966974e-17  -6.06527054e-18  1.48444546e-18  3.37426897e-18  3.51970096e-18  1.17319091e-09  1.17319089e-09  1.17319090e-09  1.17319090e-09  1.17319090e-09  1.15769964e-17  9.58497150e-18  2.03525550e-18  1.45431987e-19  -3.84262500e-10  -1.70002000e-17  6.67933325e-18  -1.28556817e-18  -3.11131213e-18  -3.46154790e-18  3.84262483e-10  3.84262507e-10  3.84262499e-10  3.84262497e-10  3.84262497e-10  1.35386521e-17  1.01408812e-17  2.17597973e-18  3.50235771e-19  -2.30610464e-03  -2.88793981e-03  -2.30687591e-03  -2.30757677e-03  -2.30757677e-03  -2.30757677e-03  5.81835174e-04  7.71271410e-07  1.47213697e-06  1.47213436e-06  1.47213436e-06  5.80363040e-04  7.00862951e-07  2.60444877e-12  1.18828558e-16  3.56060127e-03  3.59680650e-03  3.56657871e-03  3.56658501e-03  3.56658501e-03  3.56658501e-03  3.62052263e-05  5.97743084e-06  5.98373182e-06  5.98373182e-06  5.98373182e-06  3.02214945e-05  6.30098424e-09  1.69569220e-16  4.85722573e-17  -1.05335943e-03  -1.08542936e-03  -1.05527589e-03  -1.05527592e-03  -1.05527592e-03  -1.05527592e-03  3.20699330e-05  1.91646574e-06  1.91649575e-06  1.91649575e-06  1.91649575e-06  3.01534373e-05  3.00119979e-11  1.88651178e-17  4.33680869e-19
1.13540940e-02  -1.18774946e-09  1.50977437e-17  -6.06569091e-18  1.48454834e-18  3.37450283e-18  3.51994490e-18  1.18774948e-09  1.18774946e-09  1.18774947e-09  1.18774947e-09  1.18774947e-09  1.15777988e-17  9.58563581e-18  2.03539656e-18  1.45442066e-19  -3.89777152e-10  -1.70013783e-17  6.67979617e-18  -1.28565727e-18  -3.11152777e-18  -3.46178782e-18  3.89777135e-10  3.89777158e-10  3.89777150e-10  3.89777148e-10  3.89777148e-10  1.35395904e-17  1.01415840e-17  2.17613054e-18  3.50260045e-19  -2.30626467e-03  -2.88813997e-03  -2.30703579e-03  -2.30773670e-03  -2.30773670e-03  -2.30773670e-03  5.81875291e-04  7.71116202e-07  1.47203033e-06  1.47202773e-06  1.47202773e-06  5.80403263e-04  7.00911526e-07  2.60462962e-12  1.18394877e-16  3.56084847e-03  3.59705579e-03  3.56682590e-03  3.56683220e-03  3.56683220e-03  3.56683220e-03  3.62073170e-05  5.97742654e-06  5.98372796e-06  5.98372796e-06  5.98372796e-06  3.02235890e-05  6.30142095e-09  1.69569220e-16  4.85722573e-17  -1.05343256e-03  -1.08550459e-03  -1.05534903e-03  -1.05534906e-03  -1.05534906e-03  -1.05534906e-03  3.20720339e-05  1.91647677e-06  1.91650679e-06  1.91650679e-06  1.91650679e-06  3.01555271e-05  3.00140778e-11  1.88651178e-17  4.33680869e-19
1.14942680e-02  -1.20230519e-09  1.50987899e-17  -6.06611125e-18  1.48465122e-18  3.37473668e-18  3.52018882e-18  1.20230520e-09  1.20230518e-09  1.20230519e-09  1.20230519e-09  1.20230519e-09  1.15786011e-17  9.58630007e-18  2.03553761e-18  1.45452145e-19  -3.95308720e-10  -1.70025564e-17  6.68025907e-18  -1.28574636e-18  -3.11174339e-18  -3.46202771e-18  3.95308703e-10  3.95308726e-10  3.95308719e-10  3.95308717e-10  3.95308716e-10  1.35405287e-17  1.01422868e-17  2.17628135e-18  3.50284317e-19  -2.30642470e-03  -2.88834011e-03  -2.30719566e-03  -2.30789663e-03  -2.30789662e-03  -2.30789662e-03  5.81915405e-04  7.70960745e-07  1.47192345e-06  1.47192084e-06  1.47192084e-06  5.80443484e-04  7.00960097e-07  2.60481003e-12  1.18828558e-16  3.56109565e-03  3.59730505e-03  3.56707307e-03  3.56707937e-03  3.56707937e-03  3.56707937e-03  3.62094075e-05  5.97742220e-06  5.98372406e-06  5.98372406e-06  5.98372406e-06  3.02256835e-05  6.30185762e-09  1.69569220e-16  4.85722573e-17  -1.05350568e-03  -1.08557981e-03  -1.05542217e-03  -1.05542220e-03  -1.05542220e-03  -1.05542220e-03  3.20741346e-05  1.91648775e-06  1.91651777e-06  1.91651777e-06  1.91651777e-06  3.01576168e-05  3.00161580e-11  1.86482774e-17  4.33680869e-19
1.16344420e-02  -1.21685728e-09  1.50998361e-17  -6.06653156e-18  1.48475408e-18  3.37497051e-18  3.52043273e-18  1.21685729e-09  1.21685727e-09  1.21685728e-09  1.21685728e-09  1.21685728e-09  1.15794034e-17  9.58696429e-18  2.03567865e-18  1.45462223e-19  -4.00855349e-10  -1.70037345e-17  6.68072193e-18  -1.28583545e-18  -3.11195900e-18  -3.46226759e-18  4.00855332e-10  4.00855356e-10  4.00855348e-10  4.00855346e-10  4.00855345e-10  1.35414669e-17  1.01429895e-17  2.17643214e-18  3.50308588e-19  -2.30658472e-03  -2.88854023e-03  -2.30735552e-03  -2.30805654e-03  -2.30805653e-03  -2.30805653e-03  5.81955516e-04  7.70805035e-07  1.47181631e-06  1.47181370e-06  1.47181370e-06  5.80483702e-04  7.01008666e-07  2.60499044e-12  1.18828558e-16  3.56134281e-03  3.59755430e-03  3.56732022e-03  3.56732653e-03  3.56732653e-03  3.56732653e-03  3.62114979e-05  5.97741783e-06  5.98372012e-06  5.98372012e-06  5.98372012e-06  3.02277777e-05  6.30229427e-09  1.69569220e-16  4.85722573e-17  -1.05357879e-03  -1.08565503e-03  -1.05549529e-03  -1.05549532e-03  -1.05549532e-03  -1.05549532e-03  3.20762351e-05  1.91649868e-06  1.91652870e-06  1.91652870e-06  1.91652870e-06  3.01597064e-05  3.00182377e-11  1.88651178e-17  4.33680869e-19
1.17746160e-02  -1.23140621e-09  1.51008822e-17  -6.06695184e-18  1.48485695e-18  3.37520432e-18  3.52067662e-18  1.23140622e-09  1.23140620e-09  1.23140621e-09  1.23140621e-09  1.23140621e-09  1.15802056e-17  9.58762846e-18  2.03581967e-18  1.45472301e-19  -4.06418860e-10  -1.70049125e-17  6.68118476e-18  -1.28592453e-18  -3.11217459e-18  -3.46250745e-18  4.06418843e-10  4.06418867e-10  4.06418859e-10  4.06418857e-10  4.06418857e-10  1.35424050e-17  1.01436922e-17  2.17658292e-18  3.50332857e-19  -2.30674473e-03  -2.88874035e-03  -2.30751537e-03  -2.30821643e-03  -2.30821643e-03  -2.30821643e-03  5.81995623e-04  7.70649077e-07  1.47170891e-06  1.47170631e-06  1.47170631e-06  5.80523917e-04  7.01057231e-07  2.60517085e-12  1.18828558e-16  3.56158995e-03  3.59780354e-03  3.56756736e-03  3.56757367e-03  3.56757367e-03  3.56757367e-03  3.62135880e-05  5.97741341e-06  5.98371614e-06  5.98371614e-06  5.98371614e-06  3.02298719e-05  6.30273088e-09  1.69569220e-16  4.90059382e-17  -1.05365191e-03  -1.08573024e-03  -1.05556842e-03  -1.05556845e-03  -1.05556845e-03  -1.05556845e-03  3.20783354e-05  1.91650956e-06  1.91653958e-06  1.91653958e-06  1.91653958e-06  3.01617958e-05  3.00203172e-11  1.88651178e-17  4.33680869e-19
1.19147900e-02  -1.24595224e-09  1.51019282e-17  -6.06737209e-18  1.48495980e-18  3.37543812e-18  3.52092049e-18  1.24595226e-09  1.24595223e-09  1.24595224e-09  1.24595224e-09  1.24595224e-09  1.15810077e-17  9.58829258e-18  2.03596069e-18  1.45482377e-19  -4.11997578e-10  -1.70060904e-17  6.68164756e-18  -1.28601361e-18  -3.11239017e-18  -3.46274729e-18  4.11997561e-10  4.11997585e-10  4.11997577e-10  4.11997575e-10  4.11997575e-10  1.35433431e-17  1.01443949e-17  2.17673369e-18  3.50357124e-19  -2.30690472e-03  -2.88894045e-03  -2.30767521e-03  -2.30837632e-03  -2.30837632e-03  -2.30837632e-03  5.82035728e-04  7.70492867e-07  1.47160126e-06  1.47159866e-06  1.47159866e-06  5.80564129e-04  7.01105792e-07  2.60535170e-12  1.18394877e-16  3.56183708e-03  3.59805275e-03  3.56781449e-03  3.56782079e-03  3.56782079e-03  3.56782079e-03  3.62156780e-05  5.97740896e-06  5.98371212e-06  5.98371212e-06  5.98371212e-06  3.02319659e-05  6.30316746e-09  1.70002901e-16  4.90059382e-17  -1.05372501e-03  -1.08580545e-03  -1.05564153e-03  -1.05564156e-03  -1.05564156e-03  -1.05564156e-03  3.20804355e-05  1.91652040e-06  1.91655042e-06  1.91655042e-06  1.91655042e-06  3.01638851e-05  3.00223967e-11  1.86482774e-17  4.33680869e-19
1.20549640e-02  -1.26049443e-09  1.51029742e-17  -6.06779231e-18  1.48506265e-18  3.37567190e-18  3.52116435e-18  1.26049444e-09  1.26049442e-09  1.26049443e-09  1.26049443e-09  1.26049443e-09  1.15818098e-17  9.58895666e-18  2.03610170e-18  1.45492453e-19  -4.17592433e-10  -1.70072682e-17  6.68211033e-18  -1.28610267e-18  -3.11260573e-18  -3.46298712e-18  4.17592416e-10  4.17592440e-10  4.17592432e-10  4.17592430e-10  4.17592429e-10  1.35442811e-17  1.01450974e-17  2.17688445e-18  3.50381389e-19  -2.30706471e-03  -2.88914054e-03  -2.30783504e-03  -2.30853620e-03  -2.30853620e-03  -2.30853620e-03  5.82075830e-04  7.70336407e-07  1.47149336e-06  1.47149076e-06  1.47149076e-06  5.80604339e-04  7.01154350e-07  2.60553211e-12  1.18394877e-16  3.56208419e-03  3.59830195e-03  3.56806159e-03  3.56806789e-03  3.56806789e-03  3.56806789e-03  3.62177678e-05  5.97740446e-06  5.98370806e-06  5.98370806e-06  5.98370806e-06  3.02340597e-05  6.30360402e-09  1.70002901e-16  4.90059382e-17  -1.05379812e-03  -1.08588065e-03  -1.05571465e-03  -1.05571468e-03  -1.05571468e-03  -1.05571468e-03  3.20825354e-05  1.91653118e-06  1.91656120e-06  1.91656120e-06  1.91656120e-06  3.01659742e-05  3.00244760e-11  1.86482774e-17  4.33680869e-19
1.21951380e-02  -1.27503303e-09  1.51040200e-17  -6.06821251e-18  1.48516549e-18  3.37590566e-18  3.52140819e-18  1.27503305e-09  1.27503302e-09  1.27503303e-09  1.27503303e-09  1.27503303e-09  1.15826118e-17  9.58962070e-18  2.03624270e-18  1.45502529e-19  -4.23203993e-10  -1.70084460e-17  6.68257306e-18  -1.28619174e-18  -3.11282128e-18  -3.46322693e-18  4.23203976e-10  4.23203999e-10  4.23203991e-10  4.23203990e-10  4.23203989e-10  1.35452190e-17  1.01458000e-17  2.17703519e-18  3.50405653e-19  -2.30722468e-03  -2.88934061e-03  -2.30799486e-03  -2.30869606e-03  -2.30869606e-03  -2.30869606e-03  5.82115928e-04  7.70179697e-07  1.47138521e-06  1.47138260e-06  1.47138260e-06  5.80644546e-04  7.01202905e-07  2.60571252e-12  1.18828558e-16  3.56233128e-03  3.59855113e-03  3.56830868e-03  3.56831498e-03  3.56831498e-03  3.56831498e-03  3.62198574e-05  5.97739992e-06  5.98370396e-06  5.98370396e-06  5.98370396e-06  3.02361534e-05  6.30404054e-09  1.70002901e-16  4.90059382e-17  -1.05387121e-03  -1.08595585e-03  -1.05578776e-03  -1.05578779e-03  -1.05578779e-03  -1.05578779e-03  3.20846352e-05  1.91654191e-06  1.91657194e-06  1.91657194e-06  1.91657194e-06  3.01680632e-05  3.00265552e-11  1.86482774e-17  4.33680869e-19
1.23353120e-02  -1.28956824e-09  1.51050658e-17  -6.06863267e-18  1.48526832e-18  3.37613941e-18  3.52165201e-18  1.28956826e-09  1.28956823e-09  1.28956824e-09  1.28956824e-09  1.28956824e-09  1.15834138e-17  9.59028468e-18  2.03638369e-18  1.45512603e-19  -4.28830419e-10  -1.70096236e-17  6.68303576e-18  -1.28628079e-18  -3.11303681e-18  -3.46346673e-18  4.28830402e-10  4.28830426e-10  4.28830418e-10  4.28830416e-10  4.28830416e-10  1.35461569e-17  1.01465025e-17  2.17718593e-18  3.50429915e-19  -2.30738464e-03  -2.88954067e-03  -2.30815466e-03  -2.30885592e-03  -2.30885592e-03  -2.30885592e-03  5.82156024e-04  7.70022736e-07  1.47127680e-06  1.47127419e-06  1.47127419e-06  5.80684749e-04  7.01251456e-07  2.60589293e-12  1.18394877e-16  3.56257835e-03  3.59880030e-03  3.56855575e-03  3.56856205e-03  3.56856205e-03  3.56856205e-03  3.62219468e-05  5.97739535e-06  5.98369983e-06  5.98369983e-06  5.98369983e-06  3.02382470e-05  6.30447703e-09  1.69569220e-16  4.85722573e-17  -1.05394431e-03  -1.08603104e-03  -1.05586086e-03  -1.05586089e-03  -1.05586089e-03  -1.05586089e-03  3.20867347e-05  1.91655260e-06  1.91658263e-06  1.91658263e-06  1.91658263e-06  3.01701521e-05  3.00286343e-11  1.88651178e-17  4.33680869e-19
1.24754860e-02  -1.30410011e-09  1.51061116e-17  -6.06905280e-18  1.48537115e-18  3.37637314e-18  3.52189582e-18  1.30410012e-09  1.30410010e-09  1.30410011e-09  1.30410011e-09  1.30410011e-09  1.15842157e-17  9.59094862e-18  2.03652467e-18  1.45522677e-19  -4.34472701e-10  -1.70108012e-17  6.68349844e-18  -1.28636984e-18  -3.11325233e-18  -3.46370650e-18  4.34472684e-10  4.34472708e-10  4.34472700e-10  4.34472698e-10  4.34472697e-10  1.35470947e-17  1.01472049e-17  2.17733666e-18  3.50454176e-19  -2.30754459e-03  -2.88974071e-03  -2.30831446e-03  -2.30901576e-03  -2.30901576e-03  -2.30901576e-03  5.82196116e-04  7.69865527e-07  1.47116814e-06  1.47116553e-06  1.47116553e-06  5.80724951e-04  7.01300004e-07  2.60607291e-12  1.18828558e-16  3.56282541e-03  3.59904945e-03  3.56880280e-03  3.56880911e-03  3.56880911e-03  3.56880911e-03  3.62240360e-05  5.97739073e-06  5.98369565e-06  5.98369565e-06  5.98369565e-06  3.02403404e-05  6.30491350e-09  1.70002901e-16  4.90059382e-17  -1.05401739e-03  -1.08610623e-03  -1.05593396e-03  -1.05593399e-03  -1.05593399e-03  -1.05593399e-03  3.20888340e-05  1.91656324e-06  1.91659327e-06  1.91659327e-06  1.91659327e-06  3.01722408e-05  3.00307132e-11  1.88651178e-17  4.33680869e-19
1.26156600e-02  -1.31862878e-09  1.51071572e-17  -6.06947291e-18  1.48547397e-18  3.37660686e-18  3.52213961e-18  1.31862880e-09  1.31862878e-09  1.31862878e-09  1.31862879e-09  1.31862879e-09  1.15850176e-17  9.59161252e-18  2.03666564e-18  1.45532750e-19  -4.40131216e-10  -1.70119787e-17  6.68396107e-18  -1.28645889e-18  -3.11346783e-18  -3.46394626e-18  4.40131199e-10  4.40131223e-10  4.40131215e-10  4.40131213e-10  4.40131213e-10  1.35480325e-17  1.01479073e-17  2.17748738e-18  3.50478435e-19  -2.30770454e-03  -2.88994074e-03  -2.30847424e-03  -2.30917559e-03  -2.30917559e-03  -2.30917559e-03  5.82236206e-04  7.69708067e-07  1.47105922e-06  1.47105662e-06  1.47105662e-06  5.80765149e-04  7.01348549e-07  2.60625375e-12  1.18828558e-16  3.56307245e-03  3.59929858e-03  3.56904984e-03  3.56905614e-03  3.56905614e-03  3.56905614e-03  3.62261251e-05  5.97738608e-06  5.98369143e-06  5.98369143e-06  5.98369143e-06  3.02424337e-05  6.30534993e-09  1.70002901e-16  4.90059382e-17  -1.05409048e-03  -1.08618141e-03  -1.05600705e-03  -1.05600708e-03  -1.05600708e-03  -1.05600708e-03  3.20909332e-05  1.91657383e-06  1.91660386e-06  1.91660386e-06  1.91660386e-06  3.01743293e-05  3.00327920e-11  1.86482774e-17  4.33680869e-19
1.27558340e-02  -1.33315377e-09  1.51082028e-17  -6.06989299e-18  1.48557678e-18  3.37684056e-18  3.52238338e-18  1.33315378e-09  1.33315376e-09  1.33315377e-09  1.33315377e-09  1.33315377e-09  1.15858194e-17  9.59227637e-18  2.03680660e-18  1.45542823e-19  -4.45805323e-10  -1.70131562e-17  6.68442368e-18  -1.28654792e-18  -3.11368332e-18  -3.46418601e-18  4.45805306e-10  4.45805330e-10  4.45805322e-10  4.45805320e-10  4.45805320e-10  1.35489701e-17  1.01486097e-17  2.17763808e-18  3.50502692e-19  -2.30786447e-03  -2.89014076e-03  -2.30863402e-03  -2.30933542e-03  -2.30933541e-03  -2.30933541e-03  5.82276292e-04  7.69550359e-07  1.47095006e-06  1.47094745e-06  1.47094745e-06  5.80805345e-04  7.01397090e-07  2.60643373e-12  1.18828558e-16  3.56331947e-03  3.59954769e-03  3.56929686e-03  3.56930316e-03  3.56930316e-03  3.56930316e-03  3.62282139e-05  5.97738138e-06  5.98368717e-06  5.98368717e-06  5.98368717e-06  3.02445268e-05  6.30578633e-09  1.70002901e-16  4.90059382e-17  -1.05416355e-03  -1.08625659e-03  -1.05608014e-03  -1.05608017e-03  -1.05608017e-03  -1.05608017e-03  3.20930321e-05  1.91658437e-06  1.91661440e-06  1.91661440e-06  1.91661440e-06  3.01764177e-05  3.00348704e-11  1.88651178e-17  4.33680869e-19
1.28960080e-02  -1.34767514e-09  1.51092483e-17  -6.07031304e-18  1.48567958e-18  3.37707424e-18  3.52262714e-18  1.34767515e-09  1.34767513e-09  1.34767514e-09  1.34767514e-09  1.34767514e-09  1.15866212e-17  9.59294017e-18  2.03694755e-18  1.45552895e-19  -4.51495157e-10  -1.70143335e-17  6.68488625e-18  -1.28663696e-18  -3.11389879e-18  -3.46442574e-18  4.51495140e-10  4.51495164e-10  4.51495156e-10  4.51495154e-10  4.51495154e-10  1.35499078e-17  1.01493120e-17  2.17778878e-18  3.50526947e-19  -2.30802439e-03  -2.89034076e-03  -2.30879378e-03  -2.30949523e-03  -2.30949522e-03  -2.30949522e-03  5.82316375e-04  7.69392400e-07  1.47084064e-06  1.47083803e-06  1.47083803e-06  5.80845537e-04  7.01445628e-07  2.60661458e-12  1.18394877e-16  3.56356648e-03  3.59979678e-03  3.56954386e-03  3.56955016e-03  3.56955016e-03  3.56955016e-03  3.62303026e-05  5.97737665e-06  5.98368287e-06  5.98368287e-06  5.98368287e-06  3.02466198e-05  6.30622270e-09  1.70002901e-16  4.90059382e-17  -1.05423663e-03  -1.08633176e-03  -1.05615322e-03  -1.05615325e-03  -1.05615325e-03  -1.05615325e-03  3.20951309e-05  1.91659486e-06  1.91662489e-06  1.91662489e-06  1.91662489e-06  3.01785060e-05  3.00369488e-11  1.88651178e-17  4.33680869e-19
1.30361820e-02  -1.36219268e-09  1.51102938e-17  -6.07073305e-18  1.48578238e-18  3.37730791e-18  3.52287087e-18  1.36219270e-09  1.36219268e-09  1.36219268e-09  1.36219268e-09  1.36219269e-09  1.15874229e-17  9.59360393e-18  2.03708849e-18  1.45562966e-19  -4.57200184e-10  -1.70155108e-17  6.68534880e-18  -1.28672598e-18  -3.11411425e-18  -3.46466545e-18  4.57200167e-10  4.57200191e-10  4.57200183e-10  4.57200181e-10  4.57200180e-10  1.35508453e-17  1.01500142e-17  2.17793947e-18  3.50551201e-19  -2.30818429e-03  -2.89054075e-03  -2.30895353e-03  -2.30965503e-03  -2.30965502e-03  -2.30965502e-03  5.82356456e-04  7.69234193e-07  1.47073096e-06  1.47072836e-06  1.47072836e-06  5.80885727e-04  7.01494163e-07  2.60679499e-12  1.18828558e-16  3.56381347e-03  3.60004586e-03  3.56979084e-03  3.56979715e-03  3.56979715e-03  3.56979715e-03  3.62323911e-05  5.97737187e-06  5.98367853e-06  5.98367853e-06  5.98367853e-06  3.02487126e-05  6.30665904e-09  1.70002901e-16  4.90059382e-17  -1.05430969e-03  -1.08640692e-03  -1.05622630e-03  -1.05622633e-03  -1.05622633e-03  -1.05622633e-03  3.20972294e-05  1.91660530e-06  1.91663534e-06  1.91663534e-06  1.91663534e-06  3.01805941e-05  3.00390273e-11  1.88651178e-17  4.33680869e-19
1.31763560e-02  -1.37670676e-09  1.51113391e-17  -6.07115304e-18  1.48588517e-18  3.37754156e-18  3.52311460e-18  1.37670678e-09  1.37670676e-09  1.37670676e-09  1.37670677e-09  1.37670677e-09  1.15882246e-17  9.59426764e-18  2.03722943e-18  1.45573036e-19  -4.62920959e-10  -1.70166879e-17  6.68581131e-18  -1.28681500e-18  -3.11432969e-18  -3.46490514e-18  4.62920941e-10  4.62920965e-10  4.62920957e-10  4.62920955e-10  4.62920955e-10  1.35517828e-17  1.01507165e-17  2.17809014e-18  3.50575453e-19  -2.30834419e-03  -2.89074073e-03  -2.30911327e-03  -2.30981481e-03  -2.30981481e-03  -2.30981481e-03  5.82396533e-04  7.69075737e-07  1.47062104e-06  1.47061843e-06  1.47061843e-06  5.80925915e-04  7.01542694e-07  2.60697497e-12  1.18828558e-16  3.56406044e-03  3.60029492e-03  3.57003781e-03  3.57004412e-03  3.57004412e-03  3.57004412e-03  3.62344794e-05  5.97736706e-06  5.98367415e-06  5.98367415e-06  5.98367415e-06  3.02508053e-05  6.30709536e-09  1.70002901e-16  4.90059382e-17  -1.05438275e-03  -1.08648208e-03  -1.05629937e-03  -1.05629940e-03  -1.05629940e-03  -1.05629940e-03  3.20993278e-05  1.91661569e-06  1.91664573e-06  1.91664573e-06  1.91664573e-06  3.01826821e-05  3.00411057e-11  1.86482774e-17  4.33680869e-19
1.33165300e-02  -1.39121741e-09  1.51123844e-17  -6.07157300e-18  1.48598795e-18  3.37777520e-18  3.52335830e-18  1.39121743e-09  1.39121741e-09  1.39121741e-09  1.39121742e-09  1.39121742e-09  1.15890261e-17  9.59493131e-18  2.03737035e-18  1.45583106e-19  -4.68656999e-10  -1.70178650e-17  6.68627379e-18  -1.28690401e-18  -3.11454512e-18  -3.46514482e-18  4.68656982e-10  4.68657005e-10  4.68656997e-10  4.68656996e-10  4.68656995e-10  1.35527202e-17  1.01514186e-17  2.17824081e-18  3.50599703e-19  -2.30850408e-03  -2.89094069e-03  -2.30927300e-03  -2.30997459e-03  -2.30997459e-03  -2.30997459e-03  5.82436607e-04  7.68917033e-07  1.47051086e-06  1.47050826e-06  1.47050826e-06  5.80966099e-04  7.01591222e-07  2.60715538e-12  1.18828558e-16  3.56430740e-03  3.60054397e-03  3.57028476e-03  3.57029107e-03  3.57029107e-03  3.57029107e-03  3.62365676e-05  5.97736220e-06  5.98366974e-06  5.98366974e-06  5.98366974e-06  3.02528978e-05  6.30753164e-09  1.69569220e-16  4.90059382e-17  -1.05445581e-03  -1.08655724e-03  -1.05637244e-03  -1.05637247e-03  -1.05637247e-03  -1.05637247e-03  3.21014260e-05  1.91662604e-06  1.91665608e-06  1.91665608e-06  1.91665608e-06  3.01847699e-05  3.00431837e-11  1.86482774e-17  4.33680869e-19
1.34567040e-02  -1.40572393e-09  1.51134297e-17  -6.07199294e-18  1.48609073e-18  3.37800881e-18  3.52360199e-18  1.40572395e-09  1.40572393e-09  1.40572393e-09  1.40572394e-09  1.40572394e-09  1.15898277e-17  9.59559493e-18  2.03751126e-18  1.45593175e-19  -4.74408887e-10  -1.70190421e-17  6.68673623e-18  -1.28699302e-18  -3.11476053e-18  -3.46538448e-18  4.74408870e-10  4.74408894e-10  4.74408886e-10  4.74408884e-10  4.74408884e-10  1.35536576e-17  1.01521207e-17  2.17839146e-18  3.50623952e-19  -2.30866396e-03  -2.89114064e-03  -2.30943271e-03  -2.31013436e-03  -2.31013435e-03  -2.31013435e-03  5.82476679e-04  7.68758080e-07  1.47040043e-06  1.47039783e-06  1.47039783e-06  5.81006281e-04  7.01639747e-07  2.60733579e-12  1.18828558e-16  3.56455434e-03  3.60079299e-03  3.57053169e-03  3.57053800e-03  3.57053800e-03  3.57053800e-03  3.62386555e-05  5.97735731e-06  5.98366528e-06  5.98366528e-06  5.98366528e-06  3.02549902e-05  6.30796789e-09  1.70002901e-16  4.90059382e-17  -1.05452886e-03  -1.08663239e-03  -1.05644550e-03  -1.05644553e-03  -1.05644553e-03  -1.05644553e-03  3.21035240e-05  1.91663633e-06  1.91666638e-06  1.91666638e-06  1.91666638e-06  3.01868576e-05  3.00452614e-11  1.88651178e-17  4.33680869e-19
