# time  numeric_E1  refQ6_E1  refQ12_E1  refQ24_E1  refQ48_E1  refQ96_E1  errQ6_E1  errQ12_E1  errQ24_E1  errQ48_E1  errQ96_E1  deltaQuadratureQ6_Q96_E1  deltaQuadratureQ12_Q96_E1  deltaQuadratureQ24_Q96_E1  deltaQuadratureQ48_Q96_E1  numeric_E2  refQ6_E2  refQ12_E2  refQ24_E2  refQ48_E2  refQ96_E2  errQ6_E2  errQ12_E2  errQ24_E2  errQ48_E2  errQ96_E2  deltaQuadratureQ6_Q96_E2  deltaQuadratureQ12_Q96_E2  deltaQuadratureQ24_Q96_E2  deltaQuadratureQ48_Q96_E2  numeric_E3  refQ6_E3  refQ12_E3  refQ24_E3  refQ48_E3  refQ96_E3  errQ6_E3  errQ12_E3  errQ24_E3  errQ48_E3  errQ96_E3  deltaQuadratureQ6_Q96_E3  deltaQuadratureQ12_Q96_E3  deltaQuadratureQ24_Q96_E3  deltaQuadratureQ48_Q96_E3  numeric_E4  refQ6_E4  refQ12_E4  refQ24_E4  refQ48_E4  refQ96_E4  errQ6_E4  errQ12_E4  errQ24_E4  errQ48_E4  errQ96_E4  deltaQuadratureQ6_Q96_E4  deltaQuadratureQ12_Q96_E4  deltaQuadratureQ24_Q96_E4  deltaQuadratureQ48_Q96_E4  numeric_E5  refQ6_E5  refQ12_E5  refQ24_E5  refQ48_E5  refQ96_E5  errQ6_E5  errQ12_E5  errQ24_E5  errQ48_E5  errQ96_E5  deltaQuadratureQ6_Q96_E5  deltaQuadratureQ12_Q96_E5  deltaQuadratureQ24_Q96_E5  deltaQuadratureQ48_Q96_E5
5.60538000e-04  -2.47263111e-10  1.50169631e-17  -6.03323640e-18  1.47660526e-18  3.35644754e-18  3.50111142e-18  2.47263126e-10  2.47263105e-10  2.47263113e-10  2.47263114e-10  2.47263115e-10  1.15158517e-17  9.53434782e-18  2.02450616e-18  1.44663878e-19  -7.87970314e-11  -1.69104123e-17  6.64405590e-18  -1.27877836e-18  -3.09487953e-18  -3.44326551e-18  7.87970145e-11  7.87970380e-11  7.87970301e-11  7.87970283e-11  7.87970280e-11  1.34671468e-17  1.00873214e-17  2.16448715e-18  3.48385977e-19  -2.28943454e-03  -2.87268696e-03  -2.29469199e-03  -2.29538915e-03  -2.29538915e-03  -2.29538915e-03  5.83252423e-04  5.25744873e-06  5.95461261e-06  5.95461002e-06  5.95461002e-06  5.77297813e-04  6.97161296e-07  2.59069372e-12  1.17961196e-16  3.52385389e-03  3.57780972e-03  3.54774158e-03  3.54774785e-03  3.54774785e-03  3.54774785e-03  5.39558324e-05  2.38876871e-05  2.38939548e-05  2.38939548e-05  2.38939548e-05  3.00618776e-05  6.26770517e-09  1.68701858e-16  4.85722573e-17  -1.04205537e-03  -1.07969659e-03  -1.04970238e-03  -1.04970241e-03  -1.04970241e-03  -1.04970241e-03  3.76412240e-05  7.64701431e-06  7.64704417e-06  7.64704417e-06  7.64704417e-06  2.99941798e-05  2.98534875e-11  1.86482774e-17  4.33680869e-19
1.12107600e-03  -4.94483008e-10  1.50211690e-17  -6.03492615e-18  1.47701881e-18  3.35738759e-18  3.50209198e-18  4.94483023e-10  4.94483002e-10  4.94483010e-10  4.94483012e-10  4.94483012e-10  1.15190770e-17  9.53701813e-18  2.02507317e-18  1.44704394e-19  -1.58377970e-10  -1.69151485e-17  6.64591671e-18  -1.27913651e-18  -3.09574632e-18  -3.44422987e-18  1.58377954e-10  1.58377977e-10  1.58377969e-10  1.58377967e-10  1.58377967e-10  1.34709186e-17  1.00901466e-17  2.16509336e-18  3.48483551e-19  -2.29007879e-03  -2.87349152e-03  -2.29533467e-03  -2.29603203e-03  -2.29603202e-03  -2.29603202e-03  5.83412732e-04  5.25587669e-06  5.95323583e-06  5.95323324e-06  5.95323324e-06  5.77459499e-04  6.97356552e-07  2.59141883e-12  1.17961196e-16  3.52484744e-03  3.57881177e-03  3.54873520e-03  3.54874147e-03  3.54874147e-03  3.54874147e-03  5.39643318e-05  2.38877653e-05  2.38940347e-05  2.38940347e-05  2.38940347e-05  3.00702971e-05  6.26946058e-09  1.68701858e-16  4.85722573e-17  -1.04234911e-03  -1.07999899e-03  -1.04999638e-03  -1.04999641e-03  -1.04999641e-03  -1.04999641e-03  3.76498754e-05  7.64726510e-06  7.64729496e-06  7.64729496e-06  7.64729496e-06  3.00025804e-05  2.98618487e-11  1.86482774e-17  4.33680869e-19
1.68161400e-03  -7.41625343e-10  1.50253736e-17  -6.03661542e-18  1.47743226e-18  3.35832738e-18  3.50307228e-18  7.41625358e-10  7.41625337e-10  7.41625344e-10  7.41625346e-10  7.41625346e-10  1.15223014e-17  9.53968770e-18  2.02564002e-18  1.44744899e-19  -2.38991531e-10  -1.69198833e-17  6.64777701e-18  -1.27949456e-18  -3.09661287e-18  -3.44519396e-18  2.38991515e-10  2.38991538e-10  2.38991530e-10  2.38991528e-10  2.38991528e-10  1.34746893e-17  1.00929710e-17  2.16569941e-18  3.48581097e-19  -2.29072290e-03  -2.87429586e-03  -2.29597717e-03  -2.29667472e-03  -2.29667472e-03  -2.29667472e-03  5.83572960e-04  5.25426986e-06  5.95182420e-06  5.95182161e-06  5.95182161e-06  5.77621139e-04  6.97551753e-07  2.59214438e-12  1.17961196e-16  3.52584074e-03  3.57981354e-03  3.54972855e-03  3.54973482e-03  3.54973482e-03  3.54973482e-03  5.39727959e-05  2.38878104e-05  2.38940816e-05  2.38940816e-05  2.38940816e-05  3.00787143e-05  6.27121550e-09  1.68701858e-16  4.85722573e-17  -1.04264278e-03  -1.08030129e-03  -1.05029029e-03  -1.05029032e-03  -1.05029032e-03  -1.05029032e-03  3.76585123e-05  7.64750385e-06  7.64753373e-06  7.64753373e-06  7.64753373e-06  3.00109786e-05  2.98702074e-11  1.86482774e-17  4.33680869e-19
2.24215200e-03  -9.88668043e-10  1.50295771e-17  -6.03830422e-18  1.47784558e-18  3.35926690e-18  3.50405229e-18  9.88668058e-10  9.88668037e-10  9.88668045e-10  9.88668047e-10  9.88668047e-10  1.15255248e-17  9.54235651e-18  2.02620671e-18  1.44785393e-19  -3.20710821e-10  -1.69246168e-17  6.64963679e-18  -1.27985251e-18  -3.09747917e-18  -3.44615779e-18  3.20710804e-10  3.20710827e-10  3.20710819e-10  3.20710818e-10  3.20710817e-10  1.34784590e-17  1.00957946e-17  2.16630528e-18  3.48678616e-19  -2.29136685e-03  -2.87509997e-03  -2.29661949e-03  -2.29731724e-03  -2.29731724e-03  -2.29731724e-03  5.83733121e-04  5.25264033e-06  5.95038983e-06  5.95038723e-06  5.95038723e-06  5.77782734e-04  6.97746899e-07  2.59286950e-12  1.18394877e-16  3.52683378e-03  3.58081502e-03  3.55072162e-03  3.55072789e-03  3.55072789e-03  3.55072789e-03  5.39812450e-05  2.38878430e-05  2.38941159e-05  2.38941159e-05  2.38941159e-05  3.00871291e-05  6.27296994e-09  1.68701858e-16  4.85722573e-17  -1.04293638e-03  -1.08060352e-03  -1.05058411e-03  -1.05058414e-03  -1.05058414e-03  -1.05058414e-03  3.76671408e-05  7.64773644e-06  7.64776632e-06  7.64776632e-06  7.64776632e-06  3.00193745e-05  2.98785638e-11  1.86482774e-17  4.33680869e-19
2.80269000e-03  -1.23559602e-09  1.50337794e-17  -6.03999255e-18  1.47825879e-18  3.36020616e-18  3.50503204e-18  1.23559603e-09  1.23559601e-09  1.23559602e-09  1.23559602e-09  1.23559602e-09  1.15287474e-17  9.54502458e-18  2.02677324e-18  1.44825875e-19  -4.03551248e-10  -1.69293489e-17  6.65149605e-18  -1.28021036e-18  -3.09834524e-18  -3.44712135e-18  4.03551231e-10  4.03551255e-10  4.03551247e-10  4.03551245e-10  4.03551245e-10  1.34822276e-17  1.00986174e-17  2.16691099e-18  3.48776107e-19  -2.29201064e-03  -2.87590386e-03  -2.29726163e-03  -2.29795957e-03  -2.29795957e-03  -2.29795957e-03  5.83893218e-04  5.25099218e-06  5.94893676e-06  5.94893417e-06  5.94893417e-06  5.77944283e-04  6.97941992e-07  2.59359461e-12  1.18394877e-16  3.52782654e-03  3.58181623e-03  3.55171441e-03  3.55172069e-03  3.55172069e-03  3.55172069e-03  5.39896860e-05  2.38878698e-05  2.38941445e-05  2.38941445e-05  2.38941445e-05  3.00955415e-05  6.27472388e-09  1.69135539e-16  4.85722573e-17  -1.04322990e-03  -1.08090566e-03  -1.05087786e-03  -1.05087789e-03  -1.05087789e-03  -1.05087789e-03  3.76757627e-05  7.64796482e-06  7.64799470e-06  7.64799470e-06  7.64799470e-06  3.00277680e-05  2.98869180e-11  1.86482774e-17  4.33680869e-19
3.36322800e-03  -1.48239818e-09  1.50379806e-17  -6.04168040e-18  1.47867189e-18  3.36114516e-18  3.50601151e-18  1.48239819e-09  1.48239817e-09  1.48239818e-09  1.48239818e-09  1.48239818e-09  1.15319691e-17  9.54769191e-18  2.02733962e-18  1.44866347e-19  -4.87509240e-10  -1.69340798e-17  6.65335479e-18  -1.28056811e-18  -3.09921106e-18  -3.44808463e-18  4.87509223e-10  4.87509246e-10  4.87509238e-10  4.87509236e-10  4.87509236e-10  1.34859952e-17  1.01014394e-17  2.16751652e-18  3.48873571e-19  -2.29265426e-03  -2.87670752e-03  -2.29790359e-03  -2.29860173e-03  -2.29860173e-03  -2.29860173e-03  5.84053252e-04  5.24932677e-06  5.94746639e-06  5.94746379e-06  5.94746379e-06  5.78105788e-04  6.98137029e-07  2.59431929e-12  1.18394877e-16  3.52881904e-03  3.58281716e-03  3.55270693e-03  3.55271320e-03  3.55271320e-03  3.55271320e-03  5.39981211e-05  2.38878930e-05  2.38941695e-05  2.38941695e-05  2.38941695e-05  3.01039516e-05  6.27647733e-09  1.69135539e-16  4.85722573e-17  -1.04352334e-03  -1.08120771e-03  -1.05117153e-03  -1.05117156e-03  -1.05117156e-03  -1.05117156e-03  3.76843787e-05  7.64818965e-06  7.64821954e-06  7.64821954e-06  7.64821954e-06  3.00361591e-05  2.98952699e-11  1.86482774e-17  4.33680869e-19
3.92376600e-03  -1.72906432e-09  1.50421806e-17  -6.04336779e-18  1.47908486e-18  3.36208389e-18  3.50699070e-18  1.72906433e-09  1.72906431e-09  1.72906432e-09  1.72906432e-09  1.72906432e-09  1.15351899e-17  9.55035849e-18  2.02790584e-18  1.44906806e-19  -5.72574561e-10  -1.69388093e-17  6.65521301e-18  -1.28092576e-18  -3.10007664e-18  -3.44904765e-18  5.72574544e-10  5.72574567e-10  5.72574559e-10  5.72574558e-10  5.72574557e-10  1.34897617e-17  1.01042607e-17  2.16812189e-18  3.48971008e-19  -2.29329773e-03  -2.87751095e-03  -2.29854537e-03  -2.29924371e-03  -2.29924371e-03  -2.29924371e-03  5.84213224e-04  5.24764459e-06  5.94597920e-06  5.94597660e-06  5.94597660e-06  5.78267248e-04  6.98332012e-07  2.59504397e-12  1.18394877e-16  3.52981125e-03  3.58381780e-03  3.55369917e-03  3.55370544e-03  3.55370544e-03  3.55370544e-03  5.40065510e-05  2.38879134e-05  2.38941916e-05  2.38941916e-05  2.38941916e-05  3.01123594e-05  6.27823029e-09  1.68701858e-16  4.85722573e-17  -1.04381670e-03  -1.08150969e-03  -1.05146511e-03  -1.05146514e-03  -1.05146514e-03  -1.05146514e-03  3.76929890e-05  7.64841116e-06  7.64844107e-06  7.64844107e-06  7.64844107e-06  3.00445479e-05  2.99036193e-11  1.86482774e-17  4.33680869e-19
4.48430400e-03  -1.97558450e-09  1.50463793e-17  -6.04505470e-18  1.47949773e-18  3.36302237e-18  3.50796962e-18  1.97558452e-09  1.97558450e-09  1.97558450e-09  1.97558450e-09  1.97558451e-09  1.15384097e-17  9.55302433e-18  2.02847189e-18  1.44947255e-19  -6.58735760e-10  -1.69435375e-17  6.65707071e-18  -1.28128331e-18  -3.10094198e-18  -3.45001040e-18  6.58735743e-10  6.58735767e-10  6.58735759e-10  6.58735757e-10  6.58735757e-10  1.34935271e-17  1.01070811e-17  2.16872709e-18  3.49068418e-19  -2.29394103e-03  -2.87831417e-03  -2.29918698e-03  -2.29988551e-03  -2.29988551e-03  -2.29988551e-03  5.84373135e-04  5.24594585e-06  5.94447539e-06  5.94447279e-06  5.94447279e-06  5.78428662e-04  6.98526941e-07  2.59576822e-12  1.18394877e-16  3.53080319e-03  3.58481817e-03  3.55469113e-03  3.55469741e-03  3.55469741e-03  3.55469741e-03  5.40149760e-05  2.38879313e-05  2.38942113e-05  2.38942113e-05  2.38942113e-05  3.01207648e-05  6.27998276e-09  1.69135539e-16  4.90059382e-17  -1.04410998e-03  -1.08181157e-03  -1.05175861e-03  -1.05175864e-03  -1.05175864e-03  -1.05175864e-03  3.77015938e-05  7.64862944e-06  7.64865935e-06  7.64865935e-06  7.64865935e-06  3.00529344e-05  2.99119664e-11  1.86482774e-17  4.33680869e-19
5.04484200e-03  -2.22194965e-09  1.50505770e-17  -6.04674114e-18  1.47991048e-18  3.36396058e-18  3.50894827e-18  2.22194966e-09  2.22194964e-09  2.22194965e-09  2.22194965e-09  2.22194965e-09  1.15416287e-17  9.55568942e-18  2.02903780e-18  1.44987692e-19  -7.45980028e-10  -1.69482644e-17  6.65892789e-18  -1.28164076e-18  -3.10180708e-18  -3.45097288e-18  7.45980011e-10  7.45980034e-10  7.45980026e-10  7.45980025e-10  7.45980024e-10  1.34972915e-17  1.01099008e-17  2.16933212e-18  3.49165801e-19  -2.29458417e-03  -2.87911716e-03  -2.29982840e-03  -2.30052713e-03  -2.30052712e-03  -2.30052712e-03  5.84532984e-04  5.24423064e-06  5.94295505e-06  5.94295246e-06  5.94295246e-06  5.78590031e-04  6.98721815e-07  2.59649247e-12  1.18394877e-16  3.53179486e-03  3.58581826e-03  3.55568281e-03  3.55568909e-03  3.55568909e-03  3.55568909e-03  5.40233962e-05  2.38879467e-05  2.38942284e-05  2.38942284e-05  2.38942284e-05  3.01291678e-05  6.28173474e-09  1.69135539e-16  4.85722573e-17  -1.04440318e-03  -1.08211337e-03  -1.05205203e-03  -1.05205206e-03  -1.05205206e-03  -1.05205206e-03  3.77101930e-05  7.64884452e-06  7.64887444e-06  7.64887444e-06  7.64887444e-06  3.00613185e-05  2.99203115e-11  1.86482774e-17  4.33680869e-19
5.60538000e-03  -2.46815059e-09  1.50547734e-17  -6.04842712e-18  1.48032311e-18  3.36489853e-18  3.50992665e-18  2.46815060e-09  2.46815058e-09  2.46815059e-09  2.46815059e-09  2.46815059e-09  1.15448468e-17  9.55835377e-18  2.02960354e-18  1.45028118e-19  -8.34294647e-10  -1.69529900e-17  6.66078455e-18  -1.28199811e-18  -3.10267193e-18  -3.45193509e-18  8.34294630e-10  8.34294654e-10  8.34294646e-10  8.34294644e-10  8.34294644e-10  1.35010549e-17  1.01127196e-17  2.16993698e-18  3.49263157e-19  -2.29522715e-03  -2.87991992e-03  -2.30046965e-03  -2.30116857e-03  -2.30116857e-03  -2.30116857e-03  5.84692771e-04  5.24249903e-06  5.94141826e-06  5.94141567e-06  5.94141567e-06  5.78751356e-04  6.98916635e-07  2.59721628e-12  1.18394877e-16  3.53278626e-03  3.58681807e-03  3.55667422e-03  3.55668050e-03  3.55668050e-03  3.55668050e-03  5.40318116e-05  2.38879595e-05  2.38942430e-05  2.38942430e-05  2.38942430e-05  3.01375685e-05  6.28348624e-09  1.69135539e-16  4.85722573e-17  -1.04469631e-03  -1.08241509e-03  -1.05234536e-03  -1.05234539e-03  -1.05234539e-03  -1.05234539e-03  3.77187867e-05  7.64905642e-06  7.64908635e-06  7.64908635e-06  7.64908635e-06  3.00697003e-05  2.99286537e-11  1.86482774e-17  4.33680869e-19
6.16591800e-03  -2.71417746e-09  1.50589687e-17  -6.05011262e-18  1.48073563e-18  3.36583622e-18  3.51090475e-18  2.71417748e-09  2.71417745e-09  2.71417746e-09  2.71417746e-09  2.71417746e-09  1.15480639e-17  9.56101737e-18  2.03016912e-18  1.45068533e-19  -9.23666801e-10  -1.69577142e-17  6.66264070e-18  -1.28235536e-18  -3.10353655e-18  -3.45289703e-18  9.23666784e-10  9.23666808e-10  9.23666800e-10  9.23666798e-10  9.23666798e-10  1.35048172e-17  1.01155377e-17  2.17054167e-18  3.49360485e-19  -2.29586996e-03  -2.88072246e-03  -2.30111072e-03  -2.30180983e-03  -2.30180983e-03  -2.30180983e-03  5.84852498e-04  5.24075107e-06  5.93986507e-06  5.93986247e-06  5.93986247e-06  5.78912635e-04  6.99111401e-07  2.59794009e-12  1.18394877e-16  3.53377738e-03  3.58781760e-03  3.55766535e-03  3.55767163e-03  3.55767163e-03  3.55767163e-03  5.40402221e-05  2.38879699e-05  2.38942552e-05  2.38942552e-05  2.38942552e-05  3.01459669e-05  6.28523724e-09  1.69135539e-16  4.85722573e-17  -1.04498935e-03  -1.08271673e-03  -1.05263862e-03  -1.05263865e-03  -1.05263865e-03  -1.05263865e-03  3.77273749e-05  7.64926515e-06  7.64929509e-06  7.64929509e-06  7.64929509e-06  3.00780798e-05  2.99369939e-11  1.86482774e-17  4.33680869e-19
6.72645600e-03  -2.96002131e-09  1.50631628e-17  -6.05179765e-18  1.48114803e-18  3.36677365e-18  3.51188258e-18  2.96002133e-09  2.96002131e-09  2.96002131e-09  2.96002132e-09  2.96002132e-09  1.15512802e-17  9.56368024e-18  2.03073455e-18  1.45108936e-19  -1.01408371e-09  -1.69624372e-17  6.66449633e-18  -1.28271252e-18  -3.10440092e-18  -3.45385871e-18  1.01408370e-09  1.01408372e-09  1.01408371e-09  1.01408371e-09  1.01408371e-09  1.35085785e-17  1.01183550e-17  2.17114619e-18  3.49457786e-19  -2.29651262e-03  -2.88152478e-03  -2.30175160e-03  -2.30245091e-03  -2.30245091e-03  -2.30245091e-03  5.85012163e-04  5.23898682e-06  5.93829553e-06  5.93829293e-06  5.93829293e-06  5.79073870e-04  6.99306112e-07  2.59866391e-12  1.18394877e-16  3.53476823e-03  3.58881685e-03  3.55865620e-03  3.55866249e-03  3.55866249e-03  3.55866249e-03  5.40486277e-05  2.38879778e-05  2.38942648e-05  2.38942648e-05  2.38942648e-05  3.01543629e-05  6.28698776e-09  1.69569220e-16  4.90059382e-17  -1.04528232e-03  -1.08301828e-03  -1.05293179e-03  -1.05293182e-03  -1.05293182e-03  -1.05293182e-03  3.77359576e-05  7.64947073e-06  7.64950068e-06  7.64950068e-06  7.64950068e-06  3.00864569e-05  2.99453316e-11  1.88651178e-17  4.33680869e-19
7.28699400e-03  -3.20567215e-09  1.50673558e-17  -6.05348222e-18  1.48156032e-18  3.36771082e-18  3.51286014e-18  3.20567217e-09  3.20567215e-09  3.20567215e-09  3.20567216e-09  3.20567216e-09  1.15544956e-17  9.56634236e-18  2.03129982e-18  1.45149328e-19  -1.10553250e-09  -1.69671588e-17  6.66635144e-18  -1.28306957e-18  -3.10526506e-18  -3.45482012e-18  1.10553248e-09  1.10553251e-09  1.10553250e-09  1.10553250e-09  1.10553250e-09  1.35123387e-17  1.01211716e-17  2.17175055e-18  3.49555061e-19  -2.29715511e-03  -2.88232687e-03  -2.30239231e-03  -2.30309182e-03  -2.30309182e-03  -2.30309182e-03  5.85171766e-04  5.23720632e-06  5.93670969e-06  5.93670709e-06  5.93670709e-06  5.79235059e-04  6.99500769e-07  2.59938729e-12  1.18394877e-16  3.53575880e-03  3.58981583e-03  3.55964678e-03  3.55965307e-03  3.55965307e-03  3.55965307e-03  5.40570285e-05  2.38879832e-05  2.38942719e-05  2.38942719e-05  2.38942719e-05  3.01627566e-05  6.28873779e-09  1.69135539e-16  4.85722573e-17  -1.04557521e-03  -1.08331974e-03  -1.05322488e-03  -1.05322491e-03  -1.05322491e-03  -1.05322491e-03  3.77445348e-05  7.64967317e-06  7.64970312e-06  7.64970312e-06  7.64970312e-06  3.00948317e-05  2.99536672e-11  1.86482774e-17  4.33680869e-19
7.84753200e-03  -3.45112047e-09  1.50715475e-17  -6.05516631e-18  1.48197250e-18  3.36864772e-18  3.51383743e-18  3.45112048e-09  3.45112046e-09  3.45112047e-09  3.45112047e-09  3.45112047e-09  1.15577101e-17  9.56900374e-18  2.03186494e-18  1.45189709e-19  -1.19800054e-09  -1.69718791e-17  6.66820604e-18  -1.28342652e-18  -3.10612895e-18  -3.45578126e-18  1.19800053e-09  1.19800055e-09  1.19800054e-09  1.19800054e-09  1.19800054e-09  1.35160979e-17  1.01239873e-17  2.17235473e-18  3.49652308e-19  -2.29779744e-03  -2.88312875e-03  -2.30303285e-03  -2.30373254e-03  -2.30373254e-03  -2.30373254e-03  5.85331309e-04  5.23540963e-06  5.93510760e-06  5.93510500e-06  5.93510500e-06  5.79396204e-04  6.99695372e-07  2.60011023e-12  1.18394877e-16  3.53674910e-03  3.59081452e-03  3.56063709e-03  3.56064338e-03  3.56064338e-03  3.56064338e-03  5.40654245e-05  2.38879860e-05  2.38942765e-05  2.38942765e-05  2.38942765e-05  3.01711480e-05  6.29048734e-09  1.69135539e-16  4.85722573e-17  -1.04586802e-03  -1.08362113e-03  -1.05351789e-03  -1.05351792e-03  -1.05351792e-03  -1.05351792e-03  3.77531066e-05  7.64987248e-06  7.64990244e-06  7.64990244e-06  7.64990244e-06  3.01032042e-05  2.99620003e-11  1.86482774e-17  4.33680869e-19
8.40807000e-03  -3.69635667e-09  1.50757382e-17  -6.05684994e-18  1.48238456e-18  3.36958437e-18  3.51481445e-18  3.69635668e-09  3.69635666e-09  3.69635667e-09  3.69635667e-09  3.69635667e-09  1.15609237e-17  9.57166439e-18  2.03242989e-18  1.45230079e-19  -1.29147469e-09  -1.69765981e-17  6.67006012e-18  -1.28378338e-18  -3.10699260e-18  -3.45674213e-18  1.29147468e-09  1.29147470e-09  1.29147469e-09  1.29147469e-09  1.29147469e-09  1.35198560e-17  1.01268023e-17  2.17295875e-18  3.49749528e-19  -2.29843960e-03  -2.88393039e-03  -2.30367320e-03  -2.30437309e-03  -2.30437309e-03  -2.30437309e-03  5.85490791e-04  5.23359679e-06  5.93348931e-06  5.93348671e-06  5.93348671e-06  5.79557304e-04  6.99889921e-07  2.60083318e-12  1.18394877e-16  3.53773913e-03  3.59181294e-03  3.56162711e-03  3.56163341e-03  3.56163341e-03  3.56163341e-03  5.40738155e-05  2.38879862e-05  2.38942785e-05  2.38942785e-05  2.38942785e-05  3.01795370e-05  6.29223639e-09  1.69569220e-16  4.90059382e-17  -1.04616075e-03  -1.08392243e-03  -1.05381082e-03  -1.05381085e-03  -1.05381085e-03  -1.05381085e-03  3.77616730e-05  7.65006866e-06  7.65009863e-06  7.65009863e-06  7.65009863e-06  3.01115743e-05  2.99703313e-11  1.88651178e-17  4.33680869e-19
8.96860800e-03  -3.94137109e-09  1.50799276e-17  -6.05853310e-18  1.48279650e-18  3.37052075e-18  3.51579119e-18  3.94137111e-09  3.94137109e-09  3.94137109e-09  3.94137110e-09  3.94137110e-09  1.15641364e-17  9.57432429e-18  2.03299469e-18  1.45270437e-19  -1.38594233e-09  -1.69813158e-17  6.67191369e-18  -1.28414013e-18  -3.10785602e-18  -3.45770274e-18  1.38594231e-09  1.38594234e-09  1.38594233e-09  1.38594233e-09  1.38594233e-09  1.35236131e-17  1.01296164e-17  2.17356260e-18  3.49846721e-19  -2.29908161e-03  -2.88473182e-03  -2.30431338e-03  -2.30501346e-03  -2.30501346e-03  -2.30501346e-03  5.85650212e-04  5.23176785e-06  5.93185487e-06  5.93185226e-06  5.93185226e-06  5.79718359e-04  7.00084416e-07  2.60155612e-12  1.18394877e-16  3.53872888e-03  3.59281108e-03  3.56261687e-03  3.56262316e-03  3.56262316e-03  3.56262316e-03  5.40822016e-05  2.38879839e-05  2.38942779e-05  2.38942779e-05  2.38942779e-05  3.01879237e-05  6.29398496e-09  1.69569220e-16  4.90059382e-17  -1.04645341e-03  -1.08422364e-03  -1.05410367e-03  -1.05410370e-03  -1.05410370e-03  -1.05410370e-03  3.77702339e-05  7.65026174e-06  7.65029172e-06  7.65029172e-06  7.65029172e-06  3.01199421e-05  2.99786597e-11  1.88651178e-17  4.33680869e-19
9.52914600e-03  -4.18615407e-09  1.50841159e-17  -6.06021579e-18  1.48320833e-18  3.37145688e-18  3.51676766e-18  4.18615409e-09  4.18615407e-09  4.18615407e-09  4.18615408e-09  4.18615408e-09  1.15673482e-17  9.57698345e-18  2.03355933e-18  1.45310785e-19  -1.48139099e-09  -1.69860322e-17  6.67376674e-18  -1.28449679e-18  -3.10871919e-18  -3.45866308e-18  1.48139097e-09  1.48139099e-09  1.48139098e-09  1.48139098e-09  1.48139098e-09  1.35273691e-17  1.01324298e-17  2.17416629e-18  3.49943887e-19  -2.29972345e-03  -2.88553302e-03  -2.30495337e-03  -2.30565366e-03  -2.30565365e-03  -2.30565365e-03  5.85809572e-04  5.22992286e-06  5.93020432e-06  5.93020172e-06  5.93020172e-06  5.79879370e-04  7.00278857e-07  2.60227864e-12  1.18394877e-16  3.53971837e-03  3.59380895e-03  3.56360635e-03  3.56361264e-03  3.56361264e-03  3.56361264e-03  5.40905828e-05  2.38879790e-05  2.38942747e-05  2.38942747e-05  2.38942747e-05  3.01963081e-05  6.29573305e-09  1.69569220e-16  4.85722573e-17  -1.04674598e-03  -1.08452477e-03  -1.05439643e-03  -1.05439646e-03  -1.05439646e-03  -1.05439646e-03  3.77787893e-05  7.65045172e-06  7.65048171e-06  7.65048171e-06  7.65048171e-06  3.01283076e-05  2.99869862e-11  1.86482774e-17  4.33680869e-19
1.00896840e-02  -4.43069542e-09  1.50883030e-17  -6.06189802e-18  1.48362005e-18  3.37239275e-18  3.51774387e-18  4.43069544e-09  4.43069541e-09  4.43069542e-09  4.43069542e-09  4.43069542e-09  1.15705591e-17  9.57964188e-18  2.03412382e-18  1.45351121e-19  -1.57780766e-09  -1.69907472e-17  6.67561928e-18  -1.28485335e-18  -3.10958212e-18  -3.45962315e-18  1.57780764e-09  1.57780767e-09  1.57780766e-09  1.57780766e-09  1.57780766e-09  1.35311241e-17  1.01352424e-17  2.17476980e-18  3.50041026e-19  -2.30036513e-03  -2.88633400e-03  -2.30559319e-03  -2.30629367e-03  -2.30629367e-03  -2.30629367e-03  5.85968871e-04  5.22806188e-06  5.92853772e-06  5.92853512e-06  5.92853512e-06  5.80040336e-04  7.00473244e-07  2.60300115e-12  1.18394877e-16  3.54070758e-03  3.59480654e-03  3.56459555e-03  3.56460185e-03  3.56460185e-03  3.56460185e-03  5.40989591e-05  2.38879715e-05  2.38942690e-05  2.38942690e-05  2.38942690e-05  3.02046901e-05  6.29748065e-09  1.69569220e-16  4.90059382e-17  -1.04703848e-03  -1.08482582e-03  -1.05468912e-03  -1.05468915e-03  -1.05468915e-03  -1.05468915e-03  3.77873394e-05  7.65063861e-06  7.65066861e-06  7.65066861e-06  7.65066861e-06  3.01366708e-05  2.99953101e-11  1.88651178e-17  4.33680869e-19
1.06502220e-02  -4.67498572e-09  1.50924890e-17  -6.06357977e-18  1.48403165e-18  3.37332835e-18  3.51871980e-18  4.67498573e-09  4.67498571e-09  4.67498572e-09  4.67498572e-09  4.67498572e-09  1.15737692e-17  9.58229957e-18  2.03468815e-18  1.45391446e-19  -1.67517962e-09  -1.69954610e-17  6.67747130e-18  -1.28520980e-18  -3.11044482e-18  -3.46058296e-18  1.67517960e-09  1.67517962e-09  1.67517962e-09  1.67517961e-09  1.67517961e-09  1.35348780e-17  1.01380543e-17  2.17537315e-18  3.50138139e-19  -2.30100665e-03  -2.88713476e-03  -2.30623284e-03  -2.30693351e-03  -2.30693350e-03  -2.30693350e-03  5.86128109e-04  5.22618494e-06  5.92685512e-06  5.92685252e-06  5.92685252e-06  5.80201257e-04  7.00667577e-07  2.60372323e-12  1.18394877e-16  3.54169652e-03  3.59580385e-03  3.56558448e-03  3.56559078e-03  3.56559078e-03  3.56559078e-03  5.41073304e-05  2.38879614e-05  2.38942606e-05  2.38942606e-05  2.38942606e-05  3.02130699e-05  6.29922777e-09  1.69569220e-16  4.85722573e-17  -1.04733090e-03  -1.08512678e-03  -1.05498172e-03  -1.05498175e-03  -1.05498175e-03  -1.05498175e-03  3.77958841e-05  7.65082243e-06  7.65085243e-06  7.65085243e-06  7.65085243e-06  3.01450316e-05  3.00036317e-11  1.88651178e-17  4.33680869e-19
1.12107600e-02  -4.91901469e-09  1.50966738e-17  -6.06526106e-18  1.48444314e-18  3.37426370e-18  3.51969546e-18  4.91901471e-09  4.91901469e-09  4.91901469e-09  4.91901470e-09  4.91901470e-09  1.15769783e-17  9.58495652e-18  2.03525232e-18  1.45431759e-19  -1.77349450e-09  -1.70001735e-17  6.67932281e-18  -1.28556616e-18  -3.11130727e-18  -3.46154250e-18  1.77349448e-09  1.77349450e-09  1.77349449e-09  1.77349449e-09  1.77349449e-09  1.35386310e-17  1.01408653e-17  2.17597633e-18  3.50235224e-19  -2.30164801e-03  -2.88793530e-03  -2.30687230e-03  -2.30757317e-03  -2.30757316e-03  -2.30757316e-03  5.86287287e-04  5.22429210e-06  5.92515656e-06  5.92515396e-06  5.92515396e-06  5.80362133e-04  7.00861856e-07  2.60444487e-12  1.18828558e-16  3.54268518e-03  3.59680088e-03  3.56657313e-03  3.56657943e-03  3.56657943e-03  3.56657943e-03  5.41156968e-05  2.38879486e-05  2.38942496e-05  2.38942496e-05  2.38942496e-05  3.02214472e-05  6.30097440e-09  1.69569220e-16  4.90059382e-17  -1.04762324e-03  -1.08542766e-03  -1.05527424e-03  -1.05527427e-03  -1.05527427e-03  -1.05527427e-03  3.78044234e-05  7.65100319e-06  7.65103320e-06  7.65103320e-06  7.65103320e-06  3.01533902e-05  3.00119510e-11  1.86482774e-17  4.33680869e-19
1.17712980e-02  -5.16277267e-09  1.51008574e-17  -6.06694189e-18  1.48485451e-18  3.37519879e-18  3.52067085e-18  5.16277269e-09  5.16277267e-09  5.16277268e-09  5.16277268e-09  5.16277268e-09  1.15801866e-17  9.58761274e-18  2.03581634e-18  1.45472062e-19  -1.87273875e-09  -1.70048846e-17  6.68117381e-18  -1.28592242e-18  -3.11216949e-18  -3.46250177e-18  1.87273874e-09  1.87273876e-09  1.87273875e-09  1.87273875e-09  1.87273875e-09  1.35423828e-17  1.01436756e-17  2.17657935e-18  3.50332282e-19  -2.30228921e-03  -2.88873561e-03  -2.30751159e-03  -2.30821265e-03  -2.30821265e-03  -2.30821265e-03  5.86446405e-04  5.22238341e-06  5.92344210e-06  5.92343950e-06  5.92343950e-06  5.80522965e-04  7.01056081e-07  2.60516695e-12  1.18394877e-16  3.54367358e-03  3.59779764e-03  3.56756151e-03  3.56756782e-03  3.56756782e-03  3.56756782e-03  5.41240582e-05  2.38879331e-05  2.38942359e-05  2.38942359e-05  2.38942359e-05  3.02298223e-05  6.30272055e-09  1.69569220e-16  4.90059382e-17  -1.04791551e-03  -1.08572846e-03  -1.05556669e-03  -1.05556672e-03  -1.05556672e-03  -1.05556672e-03  3.78129573e-05  7.65118089e-06  7.65121091e-06  7.65121091e-06  7.65121091e-06  3.01617464e-05  3.00202680e-11  1.86482774e-17  4.33680869e-19
1.23318360e-02  -5.40624921e-09  1.51050399e-17  -6.06862225e-18  1.48526577e-18  3.37613361e-18  3.52164597e-18  5.40624923e-09  5.40624921e-09  5.40624922e-09  5.40624922e-09  5.40624922e-09  1.15833939e-17  9.59026822e-18  2.03638020e-18  1.45512353e-19  -1.97290060e-09  -1.70095944e-17  6.68302429e-18  -1.28627859e-18  -3.11303147e-18  -3.46346078e-18  1.97290058e-09  1.97290061e-09  1.97290060e-09  1.97290060e-09  1.97290060e-09  1.35461337e-17  1.01464851e-17  2.17718219e-18  3.50429314e-19  -2.30293024e-03  -2.88953570e-03  -2.30815070e-03  -2.30885196e-03  -2.30885195e-03  -2.30885195e-03  5.86605462e-04  5.22045892e-06  5.92171178e-06  5.92170917e-06  5.92170918e-06  5.80683753e-04  7.01250252e-07  2.60588860e-12  1.18394877e-16  3.54466171e-03  3.59879412e-03  3.56854962e-03  3.56855593e-03  3.56855593e-03  3.56855593e-03  5.41324146e-05  2.38879150e-05  2.38942195e-05  2.38942195e-05  2.38942195e-05  3.02381951e-05  6.30446621e-09  1.69569220e-16  4.90059382e-17  -1.04820769e-03  -1.08602918e-03  -1.05585905e-03  -1.05585908e-03  -1.05585908e-03  -1.05585908e-03  3.78214858e-05  7.65135555e-06  7.65138558e-06  7.65138558e-06  7.65138558e-06  3.01701003e-05  3.00285827e-11  1.88651178e-17  4.33680869e-19
1.28923740e-02  -5.64943443e-09  1.51092212e-17  -6.07030215e-18  1.48567692e-18  3.37706818e-18  3.52262082e-18  5.64943445e-09  5.64943443e-09  5.64943444e-09  5.64943444e-09  5.64943444e-09  1.15866004e-17  9.59292296e-18  2.03694390e-18  1.45552634e-19  -2.07396712e-09  -1.70143030e-17  6.68487426e-18  -1.28663465e-18  -3.11389320e-18  -3.46441952e-18  2.07396711e-09  2.07396713e-09  2.07396712e-09  2.07396712e-09  2.07396712e-09  1.35498835e-17  1.01492938e-17  2.17778487e-18  3.50526318e-19  -2.30357112e-03  -2.89033558e-03  -2.30878964e-03  -2.30949108e-03  -2.30949108e-03  -2.30949108e-03  5.86764458e-04  5.21851868e-06  5.91996565e-06  5.91996305e-06  5.91996305e-06  5.80844495e-04  7.01444370e-07  2.60660981e-12  1.18828558e-16  3.54564956e-03  3.59979033e-03  3.56953745e-03  3.56954376e-03  3.56954376e-03  3.56954376e-03  5.41407659e-05  2.38878942e-05  2.38942004e-05  2.38942004e-05  2.38942004e-05  3.02465655e-05  6.30621139e-09  1.69569220e-16  4.90059382e-17  -1.04849980e-03  -1.08632981e-03  -1.05615133e-03  -1.05615136e-03  -1.05615136e-03  -1.05615136e-03  3.78300091e-05  7.65152718e-06  7.65155721e-06  7.65155721e-06  7.65155721e-06  3.01784518e-05  3.00368951e-11  1.86482774e-17  4.33680869e-19
1.34529120e-02  -5.89231859e-09  1.51134014e-17  -6.07198158e-18  1.48608795e-18  3.37800249e-18  3.52359540e-18  5.89231860e-09  5.89231858e-09  5.89231859e-09  5.89231859e-09  5.89231859e-09  1.15898060e-17  9.59557697e-18  2.03750745e-18  1.45592903e-19  -2.17592556e-09  -1.70190102e-17  6.68672372e-18  -1.28699061e-18  -3.11475470e-18  -3.46537800e-18  2.17592555e-09  2.17592557e-09  2.17592556e-09  2.17592556e-09  2.17592556e-09  1.35536322e-17  1.01521017e-17  2.17838739e-18  3.50623296e-19  -2.30421183e-03  -2.89113523e-03  -2.30942839e-03  -2.31013004e-03  -2.31013003e-03  -2.31013003e-03  5.86923395e-04  5.21656272e-06  5.91820377e-06  5.91820116e-06  5.91820116e-06  5.81005194e-04  7.01638434e-07  2.60733102e-12  1.18828558e-16  3.54663714e-03  3.60078626e-03  3.57052501e-03  3.57053132e-03  3.57053132e-03  3.57053132e-03  5.41491123e-05  2.38878707e-05  2.38941787e-05  2.38941787e-05  2.38941787e-05  3.02549336e-05  6.30795609e-09  1.70002901e-16  4.90059382e-17  -1.04879183e-03  -1.08663036e-03  -1.05644352e-03  -1.05644355e-03  -1.05644355e-03  -1.05644355e-03  3.78385270e-05  7.65169579e-06  7.65172583e-06  7.65172583e-06  7.65172583e-06  3.01868011e-05  3.00452053e-11  1.88651178e-17  4.33680869e-19
1.40134500e-02  -6.13489086e-09  1.51175804e-17  -6.07366054e-18  1.48649887e-18  3.37893655e-18  3.52456971e-18  6.13489087e-09  6.13489085e-09  6.13489086e-09  6.13489086e-09  6.13489086e-09  1.15930107e-17  9.59823025e-18  2.03807084e-18  1.45633161e-19  -2.27876318e-09  -1.70237161e-17  6.68857267e-18  -1.28734648e-18  -3.11561597e-18  -3.46633621e-18  2.27876316e-09  2.27876319e-09  2.27876318e-09  2.27876318e-09  2.27876318e-09  1.35573799e-17  1.01549089e-17  2.17898973e-18  3.50720247e-19  -2.30485238e-03  -2.89193466e-03  -2.31006698e-03  -2.31076881e-03  -2.31076881e-03  -2.31076881e-03  5.87082271e-04  5.21459111e-06  5.91642617e-06  5.91642356e-06  5.91642356e-06  5.81165848e-04  7.01832444e-07  2.60805180e-12  1.18828558e-16  3.54762446e-03  3.60178191e-03  3.57151230e-03  3.57151861e-03  3.57151861e-03  3.57151861e-03  5.41574536e-05  2.38878445e-05  2.38941542e-05  2.38941542e-05  2.38941542e-05  3.02632994e-05  6.30970030e-09  1.70002901e-16  4.90059382e-17  -1.04908378e-03  -1.08693082e-03  -1.05673564e-03  -1.05673567e-03  -1.05673567e-03  -1.05673567e-03  3.78470395e-05  7.65186139e-06  7.65189144e-06  7.65189144e-06  7.65189144e-06  3.01951481e-05  3.00535131e-11  1.88651178e-17  4.33680869e-19
1.45739880e-02  -6.37714175e-09  1.51217583e-17  -6.07533904e-18  1.48690967e-18  3.37987034e-18  3.52554375e-18  6.37714177e-09  6.37714174e-09  6.37714175e-09  6.37714175e-09  6.37714175e-09  1.15962145e-17  9.60088279e-18  2.03863408e-18  1.45673407e-19  -2.38246766e-09  -1.70284208e-17  6.69042111e-18  -1.28770225e-18  -3.11647699e-18  -3.46729416e-18  2.38246765e-09  2.38246767e-09  2.38246766e-09  2.38246766e-09  2.38246766e-09  1.35611266e-17  1.01577153e-17  2.17959191e-18  3.50817171e-19  -2.30549278e-03  -2.89273386e-03  -2.31070538e-03  -2.31140741e-03  -2.31140741e-03  -2.31140741e-03  5.87241088e-04  5.21260390e-06  5.91463291e-06  5.91463030e-06  5.91463030e-06  5.81326457e-04  7.02026401e-07  2.60877257e-12  1.18828558e-16  3.54861150e-03  3.60277729e-03  3.57249932e-03  3.57250563e-03  3.57250563e-03  3.57250563e-03  5.41657898e-05  2.38878155e-05  2.38941269e-05  2.38941269e-05  2.38941269e-05  3.02716629e-05  6.31144404e-09  1.69569220e-16  4.85722573e-17  -1.04937565e-03  -1.08723120e-03  -1.05702768e-03  -1.05702771e-03  -1.05702771e-03  -1.05702771e-03  3.78555468e-05  7.65202399e-06  7.65205406e-06  7.65205406e-06  7.65205406e-06  3.02034927e-05  3.00618185e-11  1.88651178e-17  4.33680869e-19
1.51345260e-02  -6.61906070e-09  1.51259350e-17  -6.07701708e-18  1.48732037e-18  3.38080388e-18  3.52651752e-18  6.61906072e-09  6.61906069e-09  6.61906070e-09  6.61906070e-09  6.61906070e-09  1.15994174e-17  9.60353460e-18  2.03919716e-18  1.45713643e-19  -2.48702634e-09  -1.70331241e-17  6.69226904e-18  -1.28805792e-18  -3.11733778e-18  -3.46825185e-18  2.48702632e-09  2.48702635e-09  2.48702634e-09  2.48702634e-09  2.48702634e-09  1.35648723e-17  1.01605209e-17  2.18019393e-18  3.50914069e-19  -2.30613301e-03  -2.89353285e-03  -2.31134361e-03  -2.31204583e-03  -2.31204583e-03  -2.31204583e-03  5.87399844e-04  5.21060112e-06  5.91282403e-06  5.91282142e-06  5.91282142e-06  5.81487023e-04  7.02220304e-07  2.60949292e-12  1.18828558e-16  3.54959827e-03  3.60377240e-03  3.57348606e-03  3.57349237e-03  3.57349237e-03  3.57349237e-03  5.41741210e-05  2.38877838e-05  2.38940969e-05  2.38940969e-05  2.38940969e-05  3.02800241e-05  6.31318729e-09  1.70002901e-16  4.90059382e-17  -1.04966745e-03  -1.08753150e-03  -1.05731963e-03  -1.05731966e-03  -1.05731966e-03  -1.05731966e-03  3.78640488e-05  7.65218361e-06  7.65221368e-06  7.65221368e-06  7.65221368e-06  3.02118351e-05  3.00701220e-11  1.86482774e-17  4.33680869e-19
1.56950640e-02  -6.86063742e-09  1.51301105e-17  -6.07869466e-18  1.48773094e-18  3.38173716e-18  3.52749103e-18  6.86063744e-09  6.86063742e-09  6.86063743e-09  6.86063743e-09  6.86063743e-09  1.16026195e-17  9.60618568e-18  2.03976008e-18  1.45753868e-19  -2.59242647e-09  -1.70378261e-17  6.69411645e-18  -1.28841349e-18  -3.11819833e-18  -3.46920926e-18  2.59242645e-09  2.59242647e-09  2.59242646e-09  2.59242646e-09  2.59242646e-09  1.35686169e-17  1.01633257e-17  2.18079578e-18  3.51010939e-19  -2.30677308e-03  -2.89433162e-03  -2.31198166e-03  -2.31268408e-03  -2.31268407e-03  -2.31268407e-03  5.87558540e-04  5.20858283e-06  5.91099960e-06  5.91099698e-06  5.91099698e-06  5.81647543e-04  7.02414154e-07  2.61021326e-12  1.18828558e-16  3.55058478e-03  3.60476723e-03  3.57447253e-03  3.57447884e-03  3.57447884e-03  3.57447884e-03  5.41824471e-05  2.38877493e-05  2.38940642e-05  2.38940642e-05  2.38940642e-05  3.02883830e-05  6.31493006e-09  1.70002901e-16  4.90059382e-17  -1.04995917e-03  -1.08783172e-03  -1.05761151e-03  -1.05761154e-03  -1.05761154e-03  -1.05761154e-03  3.78725455e-05  7.65234026e-06  7.65237033e-06  7.65237033e-06  7.65237033e-06  3.02201751e-05  3.00784226e-11  1.88651178e-17  4.33680869e-19
1.62556020e-02  -7.10186180e-09  1.51342849e-17  -6.08037177e-18  1.48814141e-18  3.38267018e-18  3.52846426e-18  7.10186181e-09  7.10186179e-09  7.10186180e-09  7.10186180e-09  7.10186180e-09  1.16058207e-17  9.60883603e-18  2.04032285e-18  1.45794081e-19  -2.69865567e-09  -1.70425269e-17  6.69596336e-18  -1.28876896e-18  -3.11905864e-18  -3.47016642e-18  2.69865565e-09  2.69865568e-09  2.69865567e-09  2.69865567e-09  2.69865567e-09  1.35723605e-17  1.01661298e-17  2.18139746e-18  3.51107783e-19  -2.30741299e-03  -2.89513016e-03  -2.31261954e-03  -2.31332215e-03  -2.31332214e-03  -2.31332214e-03  5.87717177e-04  5.20654908e-06  5.90915964e-06  5.90915703e-06  5.90915703e-06  5.81808020e-04  7.02607950e-07  2.61093360e-12  1.18828558e-16  3.55157101e-03  3.60576178e-03  3.57545872e-03  3.57546504e-03  3.57546504e-03  3.57546504e-03  5.41907682e-05  2.38877120e-05  2.38940286e-05  2.38940286e-05  2.38940286e-05  3.02967395e-05  6.31667235e-09  1.70002901e-16  4.90059382e-17  -1.05025081e-03  -1.08813185e-03  -1.05790331e-03  -1.05790334e-03  -1.05790334e-03  -1.05790334e-03  3.78810369e-05  7.65249394e-06  7.65252402e-06  7.65252402e-06  7.65252402e-06  3.02285129e-05  3.00867213e-11  1.88651178e-17  4.33680869e-19
1.68161400e-02  -7.34272349e-09  1.51384582e-17  -6.08204842e-18  1.48855176e-18  3.38360294e-18  3.52943723e-18  7.34272351e-09  7.34272349e-09  7.34272349e-09  7.34272350e-09  7.34272350e-09  1.16090209e-17  9.61148565e-18  2.04088547e-18  1.45834284e-19  -2.80570136e-09  -1.70472263e-17  6.69780976e-18  -1.28912434e-18  -3.11991871e-18  -3.47112331e-18  2.80570135e-09  2.80570137e-09  2.80570136e-09  2.80570136e-09  2.80570136e-09  1.35761030e-17  1.01689331e-17  2.18199897e-18  3.51204601e-19  -2.30805274e-03  -2.89592849e-03  -2.31325724e-03  -2.31396004e-03  -2.31396004e-03  -2.31396004e-03  5.87875754e-04  5.20449991e-06  5.90730422e-06  5.90730161e-06  5.90730161e-06  5.81968452e-04  7.02801693e-07  2.61165395e-12  1.18828558e-16  3.55255698e-03  3.60675606e-03  3.57644465e-03  3.57645097e-03  3.57645097e-03  3.57645097e-03  5.41990841e-05  2.38876718e-05  2.38939903e-05  2.38939903e-05  2.38939903e-05  3.03050938e-05  6.31841416e-09  1.70002901e-16  4.90059382e-17  -1.05054238e-03  -1.08843190e-03  -1.05819502e-03  -1.05819505e-03  -1.05819505e-03  -1.05819505e-03  3.78895231e-05  7.65264466e-06  7.65267476e-06  7.65267476e-06  7.65267476e-06  3.02368483e-05  3.00950176e-11  1.88651178e-17  4.33680869e-19
1.73766780e-02  -7.58321210e-09  1.51426303e-17  -6.08372461e-18  1.48896200e-18  3.38453545e-18  3.53040993e-18  7.58321211e-09  7.58321209e-09  7.58321210e-09  7.58321210e-09  7.58321210e-09  1.16122203e-17  9.61413453e-18  2.04144793e-18  1.45874475e-19  -2.91355094e-09  -1.70519245e-17  6.69965565e-18  -1.28947961e-18  -3.12077855e-18  -3.47207994e-18  2.91355092e-09  2.91355094e-09  2.91355094e-09  2.91355093e-09  2.91355093e-09  1.35798445e-17  1.01717356e-17  2.18260032e-18  3.51301391e-19  -2.30869232e-03  -2.89672660e-03  -2.31389476e-03  -2.31459776e-03  -2.31459776e-03  -2.31459776e-03  5.88034271e-04  5.20243538e-06  5.90543338e-06  5.90543076e-06  5.90543076e-06  5.82128841e-04  7.02995382e-07  2.61237343e-12  1.19262239e-16  3.55354267e-03  3.60775007e-03  3.57743030e-03  3.57743662e-03  3.57743662e-03  3.57743662e-03  5.42073948e-05  2.38876289e-05  2.38939491e-05  2.38939491e-05  2.38939491e-05  3.03134458e-05  6.32015549e-09  1.70002901e-16  4.90059382e-17  -1.05083386e-03  -1.08873187e-03  -1.05848665e-03  -1.05848668e-03  -1.05848668e-03  -1.05848668e-03  3.78980040e-05  7.65279245e-06  7.65282255e-06  7.65282255e-06  7.65282255e-06  3.02451815e-05  3.01033118e-11  1.88651178e-17  4.33680869e-19
1.79372160e-02  -7.82331715e-09  1.51468012e-17  -6.08540033e-18  1.48937213e-18  3.38546770e-18  3.53138236e-18  7.82331717e-09  7.82331715e-09  7.82331716e-09  7.82331716e-09  7.82331716e-09  1.16154189e-17  9.61678269e-18  2.04201023e-18  1.45914655e-19  -3.02219192e-09  -1.70566213e-17  6.70150103e-18  -1.28983479e-18  -3.12163815e-18  -3.47303630e-18  3.02219190e-09  3.02219192e-09  3.02219192e-09  3.02219191e-09  3.02219191e-09  1.35835850e-17  1.01745373e-17  2.18320151e-18  3.51398155e-19  -2.30933175e-03  -2.89752448e-03  -2.31453211e-03  -2.31523530e-03  -2.31523530e-03  -2.31523530e-03  5.88192729e-04  5.20035553e-06  5.90354716e-06  5.90354455e-06  5.90354455e-06  5.82289185e-04  7.03189018e-07  2.61309290e-12  1.18828558e-16  3.55452810e-03  3.60874380e-03  3.57841569e-03  3.57842201e-03  3.57842201e-03  3.57842201e-03  5.42157005e-05  2.38875832e-05  2.38939051e-05  2.38939051e-05  2.38939051e-05  3.03217954e-05  6.32189634e-09  1.70002901e-16  4.90059382e-17  -1.05112527e-03  -1.08903175e-03  -1.05877821e-03  -1.05877824e-03  -1.05877824e-03  -1.05877824e-03  3.79064798e-05  7.65293730e-06  7.65296741e-06  7.65296741e-06  7.65296741e-06  3.02535123e-05  3.01116035e-11  1.88651178e-17  4.33680869e-19
1.84977540e-02  -8.06302841e-09  1.51509710e-17  -6.08707560e-18  1.48978214e-18  3.38639969e-18  3.53235452e-18  8.06302842e-09  8.06302840e-09  8.06302841e-09  8.06302841e-09  8.06302841e-09  1.16186165e-17  9.61943012e-18  2.04257238e-18  1.45954824e-19  -3.13161202e-09  -1.70613169e-17  6.70334590e-18  -1.29018988e-18  -3.12249751e-18  -3.47399240e-18  3.13161200e-09  3.13161202e-09  3.13161202e-09  3.13161201e-09  3.13161201e-09  1.35873245e-17  1.01773383e-17  2.18380253e-18  3.51494892e-19  -2.30997102e-03  -2.89832215e-03  -2.31516928e-03  -2.31587267e-03  -2.31587266e-03  -2.31587266e-03  5.88351127e-04  5.19826041e-06  5.90164563e-06  5.90164301e-06  5.90164301e-06  5.82449484e-04  7.03382600e-07  2.61381238e-12  1.18828558e-16  3.55551326e-03  3.60973726e-03  3.57940080e-03  3.57940712e-03  3.57940712e-03  3.57940712e-03  5.42240009e-05  2.38875345e-05  2.38938582e-05  2.38938582e-05  2.38938582e-05  3.03301428e-05  6.32363671e-09  1.70002901e-16  4.90059382e-17  -1.05141660e-03  -1.08933155e-03  -1.05906968e-03  -1.05906971e-03  -1.05906971e-03  -1.05906971e-03  3.79149503e-05  7.65307923e-06  7.65310935e-06  7.65310935e-06  7.65310935e-06  3.02618409e-05  3.01198929e-11  1.88651178e-17  4.33680869e-19
1.90582920e-02  -8.30233561e-09  1.51551397e-17  -6.08875040e-18  1.49019204e-18  3.38733143e-18  3.53332641e-18  8.30233562e-09  8.30233560e-09  8.30233561e-09  8.30233561e-09  8.30233561e-09  1.16218133e-17  9.62207682e-18  2.04313438e-18  1.45994983e-19  -3.24179865e-09  -1.70660111e-17  6.70519027e-18  -1.29054486e-18  -3.12335664e-18  -3.47494824e-18  3.24179863e-09  3.24179866e-09  3.24179865e-09  3.24179865e-09  3.24179865e-09  1.35910629e-17  1.01801385e-17  2.18440338e-18  3.51591603e-19  -2.31061013e-03  -2.89911960e-03  -2.31580628e-03  -2.31650986e-03  -2.31650986e-03  -2.31650986e-03  5.88509466e-04  5.19615007e-06  5.89972882e-06  5.89972620e-06  5.89972620e-06  5.82609740e-04  7.03576130e-07  2.61453142e-12  1.19262239e-16  3.55649815e-03  3.61073045e-03  3.58038564e-03  3.58039196e-03  3.58039196e-03  3.58039196e-03  5.42322963e-05  2.38874830e-05  2.38938084e-05  2.38938084e-05  2.38938084e-05  3.03384878e-05  6.32537660e-09  1.70002901e-16  4.90059382e-17  -1.05170786e-03  -1.08963127e-03  -1.05936108e-03  -1.05936111e-03  -1.05936111e-03  -1.05936111e-03  3.79234156e-05  7.65321825e-06  7.65324838e-06  7.65324838e-06  7.65324838e-06  3.02701672e-05  3.01281803e-11  1.86482774e-17  4.33680869e-19
1.96188300e-02  -8.54122797e-09  1.51593072e-17  -6.09042475e-18  1.49060183e-18  3.38826291e-18  3.53429804e-18  8.54122798e-09  8.54122796e-09  8.54122797e-09  8.54122797e-09  8.54122797e-09  1.16250091e-17  9.62472279e-18  2.04369622e-18  1.46035130e-19  -3.35273904e-09  -1.70707041e-17  6.70703412e-18  -1.29089975e-18  -3.12421553e-18  -3.47590382e-18  3.35273903e-09  3.35273905e-09  3.35273904e-09  3.35273904e-09  3.35273904e-09  1.35948003e-17  1.01829379e-17  2.18500407e-18  3.51688287e-19  -2.31124908e-03  -2.89991682e-03  -2.31644310e-03  -2.31714687e-03  -2.31714687e-03  -2.31714687e-03  5.88667746e-04  5.19402456e-06  5.89779678e-06  5.89779416e-06  5.89779416e-06  5.82769952e-04  7.03769606e-07  2.61525046e-12  1.19262239e-16  3.55748278e-03  3.61172336e-03  3.58137021e-03  3.58137653e-03  3.58137653e-03  3.58137653e-03  5.42405864e-05  2.38874287e-05  2.38937558e-05  2.38937558e-05  2.38937558e-05  3.03468306e-05  6.32711601e-09  1.70436582e-16  4.90059382e-17  -1.05199903e-03  -1.08993091e-03  -1.05965239e-03  -1.05965242e-03  -1.05965242e-03  -1.05965242e-03  3.79318757e-05  7.65335438e-06  7.65338451e-06  7.65338451e-06  7.65338451e-06  3.02784912e-05  3.01364652e-11  1.88651178e-17  4.33680869e-19
2.01793680e-02  -8.77969532e-09  1.51634735e-17  -6.09209863e-18  1.49101150e-18  3.38919414e-18  3.53526940e-18  8.77969534e-09  8.77969532e-09  8.77969532e-09  8.77969532e-09  8.77969532e-09  1.16282041e-17  9.62736803e-18  2.04425790e-18  1.46075266e-19  -3.46442114e-09  -1.70753958e-17  6.70887747e-18  -1.29125454e-18  -3.12507418e-18  -3.47685913e-18  3.46442112e-09  3.46442115e-09  3.46442114e-09  3.46442114e-09  3.46442114e-09  1.35985367e-17  1.01857366e-17  2.18560459e-18  3.51784945e-19  -2.31188787e-03  -2.90071383e-03  -2.31707975e-03  -2.31778372e-03  -2.31778371e-03  -2.31778371e-03  5.88825966e-04  5.19188392e-06  5.89584956e-06  5.89584695e-06  5.89584695e-06  5.82930119e-04  7.03963029e-07  2.61596907e-12  1.19262239e-16  3.55846713e-03  3.61271600e-03  3.58235450e-03  3.58236083e-03  3.58236083e-03  3.58236083e-03  5.42488713e-05  2.38873714e-05  2.38937002e-05  2.38937002e-05  2.38937002e-05  3.03551711e-05  6.32885495e-09  1.70002901e-16  4.90059382e-17  -1.05229013e-03  -1.09023046e-03  -1.05994362e-03  -1.05994365e-03  -1.05994365e-03  -1.05994365e-03  3.79403306e-05  7.65348761e-06  7.65351776e-06  7.65351776e-06  7.65351776e-06  3.02868129e-05  3.01447480e-11  1.88651178e-17  4.33680869e-19
2.07399060e-02  -9.01772702e-09  1.51676387e-17  -6.09377205e-18  1.49142106e-18  3.39012511e-18  3.53624050e-18  9.01772704e-09  9.01772702e-09  9.01772702e-09  9.01772703e-09  9.01772703e-09  1.16313983e-17  9.63001255e-18  2.04481944e-18  1.46115391e-19  -3.57683238e-09  -1.70800862e-17  6.71072032e-18  -1.29160923e-18  -3.12593260e-18  -3.47781418e-18  3.57683236e-09  3.57683238e-09  3.57683237e-09  3.57683237e-09  3.57683237e-09  1.36022720e-17  1.01885345e-17  2.18620495e-18  3.51881575e-19  -2.31252649e-03  -2.90151062e-03  -2.31771622e-03  -2.31842038e-03  -2.31842038e-03  -2.31842038e-03  5.88984127e-04  5.18972820e-06  5.89388722e-06  5.89388460e-06  5.89388460e-06  5.83090243e-04  7.04156399e-07  2.61668768e-12  1.19262239e-16  3.55945122e-03  3.61370837e-03  3.58333853e-03  3.58334486e-03  3.58334486e-03  3.58334486e-03  5.42571510e-05  2.38873112e-05  2.38936418e-05  2.38936418e-05  2.38936418e-05  3.03635093e-05  6.33059340e-09  1.70436582e-16  4.90059382e-17  -1.05258116e-03  -1.09052994e-03  -1.06023477e-03  -1.06023481e-03  -1.06023481e-03  -1.06023481e-03  3.79487804e-05  7.65361797e-06  7.65364813e-06  7.65364813e-06  7.65364813e-06  3.02951323e-05  3.01530283e-11  1.88651178e-17  4.33680869e-19
2.13004440e-02  -9.25531255e-09  1.51718028e-17  -6.09544502e-18  1.49183051e-18  3.39105582e-18  3.53721133e-18  9.25531256e-09  9.25531254e-09  9.25531255e-09  9.25531255e-09  9.25531255e-09  1.16345915e-17  9.63265634e-18  2.04538081e-18  1.46155505e-19  -3.68996040e-09  -1.70847753e-17  6.71256266e-18  -1.29196382e-18  -3.12679079e-18  -3.47876897e-18  3.68996038e-09  3.68996041e-09  3.68996040e-09  3.68996040e-09  3.68996040e-09  1.36060064e-17  1.01913316e-17  2.18680514e-18  3.51978180e-19  -2.31316496e-03  -2.90230719e-03  -2.31835252e-03  -2.31905687e-03  -2.31905687e-03  -2.31905687e-03  5.89142230e-04  5.18755746e-06  5.89190979e-06  5.89190717e-06  5.89190717e-06  5.83250323e-04  7.04349716e-07  2.61740629e-12  1.19262239e-16  3.56043504e-03  3.61470047e-03  3.58432229e-03  3.58432862e-03  3.58432862e-03  3.58432862e-03  5.42654255e-05  2.38872480e-05  2.38935803e-05  2.38935803e-05  2.38935803e-05  3.03718452e-05  6.33233138e-09  1.70436582e-16  4.90059382e-17  -1.05287210e-03  -1.09082933e-03  -1.06052585e-03  -1.06052588e-03  -1.06052588e-03  -1.06052588e-03  3.79572250e-05  7.65374547e-06  7.65377563e-06  7.65377563e-06  7.65377563e-06  3.03034494e-05  3.01613064e-11  1.86482774e-17  4.33680869e-19
2.18609820e-02  -9.49244142e-09  1.51759658e-17  -6.09711752e-18  1.49223985e-18  3.39198628e-18  3.53818189e-18  9.49244144e-09  9.49244142e-09  9.49244142e-09  9.49244142e-09  9.49244142e-09  1.16377839e-17  9.63529941e-18  2.04594204e-18  1.46195608e-19  -3.80379256e-09  -1.70894631e-17  6.71440449e-18  -1.29231832e-18  -3.12764873e-18  -3.47972349e-18  3.80379254e-09  3.80379256e-09  3.80379256e-09  3.80379255e-09  3.80379255e-09  1.36097397e-17  1.01941280e-17  2.18740517e-18  3.52074758e-19  -2.31380327e-03  -2.90310355e-03  -2.31898864e-03  -2.31969319e-03  -2.31969319e-03  -2.31969319e-03  5.89300273e-04  5.18537173e-06  5.88991732e-06  5.88991471e-06  5.88991471e-06  5.83410358e-04  7.04542979e-07  2.61812447e-12  1.19262239e-16  3.56141860e-03  3.61569229e-03  3.58530578e-03  3.58531211e-03  3.58531211e-03  3.58531211e-03  5.42736948e-05  2.38871819e-05  2.38935160e-05  2.38935160e-05  2.38935160e-05  3.03801788e-05  6.33406889e-09  1.70436582e-16  4.90059382e-17  -1.05316297e-03  -1.09112864e-03  -1.06081684e-03  -1.06081687e-03  -1.06081687e-03  -1.06081687e-03  3.79656645e-05  7.65387011e-06  7.65390028e-06  7.65390028e-06  7.65390028e-06  3.03117642e-05  3.01695821e-11  1.88651178e-17  4.33680869e-19
2.24215200e-02  -9.72910309e-09  1.51801275e-17  -6.09878957e-18  1.49264908e-18  3.39291648e-18  3.53915218e-18  9.72910310e-09  9.72910308e-09  9.72910309e-09  9.72910309e-09  9.72910309e-09  1.16409754e-17  9.63794175e-18  2.04650311e-18  1.46235700e-19  -3.91831706e-09  -1.70941497e-17  6.71624582e-18  -1.29267272e-18  -3.12850645e-18  -3.48067775e-18  3.91831705e-09  3.91831707e-09  3.91831706e-09  3.91831706e-09  3.91831706e-09  1.36134719e-17  1.01969236e-17  2.18800504e-18  3.52171309e-19  -2.31444142e-03  -2.90389968e-03  -2.31962459e-03  -2.32032933e-03  -2.32032933e-03  -2.32032933e-03  5.89458257e-04  5.18317106e-06  5.88790987e-06  5.88790725e-06  5.88790725e-06  5.83570350e-04  7.04736190e-07  2.61884221e-12  1.19262239e-16  3.56240188e-03  3.61668384e-03  3.58628900e-03  3.58629533e-03  3.58629533e-03  3.58629533e-03  5.42819588e-05  2.38871128e-05  2.38934486e-05  2.38934486e-05  2.38934486e-05  3.03885101e-05  6.33580591e-09  1.70436582e-16  4.90059382e-17  -1.05345376e-03  -1.09142786e-03  -1.06110776e-03  -1.06110779e-03  -1.06110779e-03  -1.06110779e-03  3.79740989e-05  7.65399190e-06  7.65402208e-06  7.65402208e-06  7.65402208e-06  3.03200768e-05  3.01778557e-11  1.88651178e-17  4.33680869e-19
2.29820580e-02  -9.96528697e-09  1.51842882e-17  -6.10046115e-18  1.49305819e-18  3.39384643e-18  3.54012221e-18  9.96528699e-09  9.96528696e-09  9.96528697e-09  9.96528697e-09  9.96528697e-09  1.16441660e-17  9.64058337e-18  2.04706402e-18  1.46275781e-19  -4.03352094e-09  -1.70988349e-17  6.71808664e-18  -1.29302702e-18  -3.12936392e-18  -3.48163176e-18  4.03352092e-09  4.03352094e-09  4.03352093e-09  4.03352093e-09  4.03352093e-09  1.36172032e-17  1.01997184e-17  2.18860474e-18  3.52267834e-19  -2.31507941e-03  -2.90469560e-03  -2.32026037e-03  -2.32096530e-03  -2.32096530e-03  -2.32096530e-03  5.89616183e-04  5.18095552e-06  5.88588748e-06  5.88588486e-06  5.88588486e-06  5.83730298e-04  7.04929348e-07  2.61955995e-12  1.19262239e-16  3.56338490e-03  3.61767512e-03  3.58727194e-03  3.58727828e-03  3.58727828e-03  3.58727828e-03  5.42902175e-05  2.38870408e-05  2.38933783e-05  2.38933783e-05  2.38933783e-05  3.03968391e-05  6.33754246e-09  1.70870262e-16  4.90059382e-17  -1.05374448e-03  -1.09172701e-03  -1.06139859e-03  -1.06139862e-03  -1.06139862e-03  -1.06139862e-03  3.79825281e-05  7.65411086e-06  7.65414105e-06  7.65414105e-06  7.65414105e-06  3.03283871e-05  3.01861270e-11  1.88651178e-17  4.33680869e-19
2.35425960e-02  -1.02009825e-08  1.51884477e-17  -6.10213228e-18  1.49346719e-18  3.39477612e-18  3.54109198e-18  1.02009825e-08  1.02009825e-08  1.02009825e-08  1.02009825e-08  1.02009825e-08  1.16473557e-17  9.64322426e-18  2.04762479e-18  1.46315851e-19  -4.14939182e-09  -1.71035189e-17  6.71992696e-18  -1.29338123e-18  -3.13022116e-18  -3.48258550e-18  4.14939181e-09  4.14939183e-09  4.14939182e-09  4.14939182e-09  4.14939182e-09  1.36209334e-17  1.02025125e-17  2.18920427e-18  3.52364333e-19  -2.31571724e-03  -2.90549129e-03  -2.32089597e-03  -2.32160109e-03  -2.32160109e-03  -2.32160109e-03  5.89774050e-04  5.17872513e-06  5.88385020e-06  5.88384758e-06  5.88384758e-06  5.83890202e-04  7.05122453e-07  2.62027769e-12  1.19262239e-16  3.56436766e-03  3.61866613e-03  3.58825462e-03  3.58826096e-03  3.58826096e-03  3.58826096e-03  5.42984709e-05  2.38869657e-05  2.38933050e-05  2.38933050e-05  2.38933050e-05  3.04051659e-05  6.33927854e-09  1.70870262e-16  4.94396191e-17  -1.05403512e-03  -1.09202607e-03  -1.06168934e-03  -1.06168937e-03  -1.06168937e-03  -1.06168937e-03  3.79909523e-05  7.65422700e-06  7.65425720e-06  7.65425720e-06  7.65425720e-06  3.03366951e-05  3.01943962e-11  1.88651178e-17  4.33680869e-19
2.41031340e-02  -1.04361793e-08  1.51926061e-17  -6.10380296e-18  1.49387608e-18  3.39570556e-18  3.54206147e-18  1.04361793e-08  1.04361793e-08  1.04361793e-08  1.04361793e-08  1.04361793e-08  1.16505446e-17  9.64586443e-18  2.04818539e-18  1.46355910e-19  -4.26591816e-09  -1.71082016e-17  6.72176678e-18  -1.29373533e-18  -3.13107817e-18  -3.48353898e-18  4.26591815e-09  4.26591817e-09  4.26591816e-09  4.26591816e-09  4.26591816e-09  1.36246626e-17  1.02053058e-17  2.18980364e-18  3.52460805e-19  -2.31635492e-03  -2.90628677e-03  -2.32153140e-03  -2.32223671e-03  -2.32223671e-03  -2.32223671e-03  5.89931858e-04  5.17647995e-06  5.88179808e-06  5.88179545e-06  5.88179545e-06  5.84050063e-04  7.05315505e-07  2.62099500e-12  1.19695920e-16  3.56535015e-03  3.61965687e-03  3.58923703e-03  3.58924338e-03  3.58924338e-03  3.58924338e-03  5.43067191e-05  2.38868877e-05  2.38932287e-05  2.38932287e-05  2.38932287e-05  3.04134904e-05  6.34101414e-09  1.70870262e-16  4.94396191e-17  -1.05432568e-03  -1.09232505e-03  -1.06198002e-03  -1.06198005e-03  -1.06198005e-03  -1.06198005e-03  3.79993714e-05  7.65434033e-06  7.65437053e-06  7.65437053e-06  7.65437053e-06  3.03450008e-05  3.02026629e-11  1.88651178e-17  4.33680869e-19
2.46636720e-02  -1.06708666e-08  1.51967633e-17  -6.10547317e-18  1.49428486e-18  3.39663475e-18  3.54303071e-18  1.06708666e-08  1.06708666e-08  1.06708666e-08  1.06708666e-08  1.06708666e-08  1.16537326e-17  9.64850388e-18  2.04874585e-18  1.46395958e-19  -4.38308696e-09  -1.71128830e-17  6.72360609e-18  -1.29408935e-18  -3.13193495e-18  -3.48449220e-18  4.38308694e-09  4.38308697e-09  4.38308696e-09  4.38308696e-09  4.38308696e-09  1.36283908e-17  1.02080983e-17  2.19040285e-18  3.52557250e-19  -2.31699243e-03  -2.90708204e-03  -2.32216665e-03  -2.32287216e-03  -2.32287216e-03  -2.32287216e-03  5.90089608e-04  5.17422003e-06  5.87973115e-06  5.87972853e-06  5.87972853e-06  5.84209879e-04  7.05508504e-07  2.62171188e-12  1.19695920e-16  3.56633237e-03  3.62064733e-03  3.59021918e-03  3.59022552e-03  3.59022552e-03  3.59022552e-03  5.43149619e-05  2.38868065e-05  2.38931493e-05  2.38931493e-05  2.38931493e-05  3.04218126e-05  6.34274926e-09  1.70436582e-16  4.90059382e-17  -1.05461616e-03  -1.09262395e-03  -1.06227061e-03  -1.06227064e-03  -1.06227064e-03  -1.06227064e-03  3.80077854e-05  7.65445086e-06  7.65448107e-06  7.65448107e-06  7.65448107e-06  3.03533043e-05  3.02109273e-11  1.88651178e-17  4.33680869e-19
2.52242100e-02  -1.09050335e-08  1.52009194e-17  -6.10714293e-18  1.49469352e-18  3.39756368e-18  3.54399967e-18  1.09050335e-08  1.09050335e-08  1.09050335e-08  1.09050335e-08  1.09050335e-08  1.16569197e-17  9.65114260e-18  2.04930615e-18  1.46435995e-19  -4.50088602e-09  -1.71175631e-17  6.72544490e-18  -1.29444326e-18  -3.13279148e-18  -3.48544515e-18  4.50088600e-09  4.50088603e-09  4.50088602e-09  4.50088602e-09  4.50088602e-09  1.36321180e-17  1.02108901e-17  2.19100189e-18  3.52653670e-19  -2.31762978e-03  -2.90787708e-03  -2.32280173e-03  -2.32350743e-03  -2.32350743e-03  -2.32350743e-03  5.90247299e-04  5.17194541e-06  5.87764948e-06  5.87764686e-06  5.87764686e-06  5.84369652e-04  7.05701450e-07  2.62242918e-12  1.19695920e-16  3.56731433e-03  3.62163753e-03  3.59120105e-03  3.59120739e-03  3.59120739e-03  3.59120739e-03  5.43231994e-05  2.38867224e-05  2.38930669e-05  2.38930669e-05  2.38930669e-05  3.04301325e-05  6.34448391e-09  1.70436582e-16  4.90059382e-17  -1.05490657e-03  -1.09292276e-03  -1.06256113e-03  -1.06256116e-03  -1.06256116e-03  -1.06256116e-03  3.80161943e-05  7.65455859e-06  7.65458881e-06  7.65458881e-06  7.65458881e-06  3.03616055e-05  3.02191898e-11  1.88651178e-17  4.33680869e-19
2.57847480e-02  -1.11386699e-08  1.52050744e-17  -6.10881223e-18  1.49510207e-18  3.39849235e-18  3.54496838e-18  1.11386699e-08  1.11386699e-08  1.11386699e-08  1.11386699e-08  1.11386699e-08  1.16601060e-17  9.65378061e-18  2.04986630e-18  1.46476022e-19  -4.61930297e-09  -1.71222420e-17  6.72728320e-18  -1.29479708e-18  -3.13364779e-18  -3.48639785e-18  4.61930296e-09  4.61930298e-09  4.61930297e-09  4.61930297e-09  4.61930297e-09  1.36358441e-17  1.02136811e-17  2.19160077e-18  3.52750063e-19  -2.31826698e-03  -2.90867191e-03  -2.32343663e-03  -2.32414253e-03  -2.32414253e-03  -2.32414253e-03  5.90404932e-04  5.16965614e-06  5.87555311e-06  5.87555048e-06  5.87555048e-06  5.84529382e-04  7.05894344e-07  2.62314606e-12  1.19262239e-16  3.56829602e-03  3.62262745e-03  3.59218265e-03  3.59218900e-03  3.59218900e-03  3.59218900e-03  5.43314315e-05  2.38866352e-05  2.38929814e-05  2.38929814e-05  2.38929814e-05  3.04384502e-05  6.34621809e-09  1.70870262e-16  4.90059382e-17  -1.05519690e-03  -1.09322150e-03  -1.06285157e-03  -1.06285160e-03  -1.06285160e-03  -1.06285160e-03  3.80245982e-05  7.65466355e-06  7.65469378e-06  7.65469378e-06  7.65469378e-06  3.03699044e-05  3.02274497e-11  1.88651178e-17  4.33680869e-19
2.63452860e-02  -1.13717647e-08  1.52092282e-17  -6.11048108e-18  1.49551052e-18  3.39942078e-18  3.54593681e-18  1.13717647e-08  1.13717647e-08  1.13717647e-08  1.13717647e-08  1.13717647e-08  1.16632914e-17  9.65641789e-18  2.05042630e-18  1.46516037e-19  -4.73832596e-09  -1.71269195e-17  6.72912101e-18  -1.29515080e-18  -3.13450386e-18  -3.48735029e-18  4.73832595e-09  4.73832597e-09  4.73832596e-09  4.73832596e-09  4.73832596e-09  1.36395692e-17  1.02164713e-17  2.19219949e-18  3.52846429e-19  -2.31890401e-03  -2.90946652e-03  -2.32407136e-03  -2.32477745e-03  -2.32477745e-03  -2.32477745e-03  5.90562507e-04  5.16735227e-06  5.87344208e-06  5.87343946e-06  5.87343946e-06  5.84689067e-04  7.06087185e-07  2.62386250e-12  1.19695920e-16  3.56927744e-03  3.62361710e-03  3.59316399e-03  3.59317034e-03  3.59317034e-03  3.59317034e-03  5.43396583e-05  2.38865449e-05  2.38928928e-05  2.38928928e-05  2.38928928e-05  3.04467655e-05  6.34795179e-09  1.71303943e-16  4.94396191e-17  -1.05548716e-03  -1.09352015e-03  -1.06314192e-03  -1.06314195e-03  -1.06314195e-03  -1.06314195e-03  3.80329970e-05  7.65476574e-06  7.65479597e-06  7.65479597e-06  7.65479597e-06  3.03782010e-05  3.02357074e-11  1.88651178e-17  4.33680869e-19
2.69058240e-02  -1.16043076e-08  1.52133809e-17  -6.11214947e-18  1.49591885e-18  3.40034895e-18  3.54690499e-18  1.16043076e-08  1.16043076e-08  1.16043076e-08  1.16043076e-08  1.16043076e-08  1.16664759e-17  9.65905446e-18  2.05098614e-18  1.46556041e-19  -4.85794230e-09  -1.71315958e-17  6.73095831e-18  -1.29550442e-18  -3.13535970e-18  -3.48830247e-18  4.85794228e-09  4.85794231e-09  4.85794230e-09  4.85794230e-09  4.85794230e-09  1.36432934e-17  1.02192608e-17  2.19279804e-18  3.52942770e-19  -2.31954089e-03  -2.91026091e-03  -2.32470592e-03  -2.32541221e-03  -2.32541220e-03  -2.32541220e-03  5.90720023e-04  5.16503385e-06  5.87131644e-06  5.87131382e-06  5.87131382e-06  5.84848709e-04  7.06279973e-07  2.62457937e-12  1.19262239e-16  3.57025861e-03  3.62460649e-03  3.59414506e-03  3.59415141e-03  3.59415141e-03  3.59415141e-03  5.43478798e-05  2.38864514e-05  2.38928011e-05  2.38928011e-05  2.38928011e-05  3.04550786e-05  6.34968502e-09  1.70870262e-16  4.94396191e-17  -1.05577733e-03  -1.09381873e-03  -1.06343220e-03  -1.06343223e-03  -1.06343223e-03  -1.06343223e-03  3.80413908e-05  7.65486517e-06  7.65489541e-06  7.65489541e-06  7.65489541e-06  3.03864954e-05  3.02439629e-11  1.88651178e-17  4.33680869e-19
2.74663620e-02  -1.18362875e-08  1.52175324e-17  -6.11381740e-18  1.49632707e-18  3.40127686e-18  3.54787290e-18  1.18362875e-08  1.18362875e-08  1.18362875e-08  1.18362875e-08  1.18362875e-08  1.16696595e-17  9.66169030e-18  2.05154583e-18  1.46596035e-19  -4.97814013e-09  -1.71362708e-17  6.73279511e-18  -1.29585795e-18  -3.13621530e-18  -3.48925438e-18  4.97814011e-09  4.97814013e-09  4.97814012e-09  4.97814012e-09  4.97814012e-09  1.36470165e-17  1.02220495e-17  2.19339643e-18  3.53039084e-19  -2.32017761e-03  -2.91105509e-03  -2.32534031e-03  -2.32604678e-03  -2.32604678e-03  -2.32604678e-03  5.90877481e-04  5.16270092e-06  5.86917625e-06  5.86917362e-06  5.86917362e-06  5.85008308e-04  7.06472709e-07  2.62529538e-12  1.19695920e-16  3.57123950e-03  3.62559560e-03  3.59512586e-03  3.59513221e-03  3.59513221e-03  3.59513221e-03  5.43560958e-05  2.38863549e-05  2.38927063e-05  2.38927063e-05  2.38927063e-05  3.04633895e-05  6.35141778e-09  1.70870262e-16  4.90059382e-17  -1.05606744e-03  -1.09411722e-03  -1.06372240e-03  -1.06372243e-03  -1.06372243e-03  -1.06372243e-03  3.80497797e-05  7.65496185e-06  7.65499210e-06  7.65499210e-06  7.65499210e-06  3.03947876e-05  3.02522161e-11  1.88651178e-17  4.33680869e-19
2.80269000e-02  -1.20676942e-08  1.52216828e-17  -6.11548489e-18  1.49673517e-18  3.40220453e-18  3.54884054e-18  1.20676942e-08  1.20676942e-08  1.20676942e-08  1.20676942e-08  1.20676942e-08  1.16728423e-17  9.66432543e-18  2.05210537e-18  1.46636017e-19  -5.09890696e-09  -1.71409446e-17  6.73463141e-18  -1.29621138e-18  -3.13707067e-18  -3.49020604e-18  5.09890695e-09  5.09890697e-09  5.09890696e-09  5.09890696e-09  5.09890696e-09  1.36507385e-17  1.02248375e-17  2.19399466e-18  3.53135371e-19  -2.32081417e-03  -2.91184905e-03  -2.32597452e-03  -2.32668119e-03  -2.32668119e-03  -2.32668119e-03  5.91034882e-04  5.16035352e-06  5.86702154e-06  5.86701892e-06  5.86701892e-06  5.85167863e-04  7.06665392e-07  2.62601095e-12  1.19695920e-16  3.57222014e-03  3.62658444e-03  3.59610639e-03  3.59611275e-03  3.59611275e-03  3.59611275e-03  5.43643065e-05  2.38862553e-05  2.38926084e-05  2.38926084e-05  2.38926084e-05  3.04716981e-05  6.35315006e-09  1.71303943e-16  4.94396191e-17  -1.05635746e-03  -1.09441562e-03  -1.06401252e-03  -1.06401255e-03  -1.06401255e-03  -1.06401255e-03  3.80581635e-05  7.65505580e-06  7.65508606e-06  7.65508606e-06  7.65508606e-06  3.04030774e-05  3.02604671e-11  1.88651178e-17  4.33680869e-19
2.85874380e-02  -1.22985166e-08  1.52258321e-17  -6.11715191e-18  1.49714317e-18  3.40313194e-18  3.54980792e-18  1.22985166e-08  1.22985166e-08  1.22985166e-08  1.22985166e-08  1.22985166e-08  1.16760242e-17  9.66695984e-18  2.05266475e-18  1.46675989e-19  -5.22023068e-09  -1.71456170e-17  6.73646721e-18  -1.29656472e-18  -3.13792581e-18  -3.49115744e-18  5.22023066e-09  5.22023068e-09  5.22023068e-09  5.22023067e-09  5.22023067e-09  1.36544596e-17  1.02276247e-17  2.19459272e-18  3.53231633e-19  -2.32145057e-03  -2.91264279e-03  -2.32660856e-03  -2.32731542e-03  -2.32731542e-03  -2.32731542e-03  5.91192224e-04  5.15799172e-06  5.86485237e-06  5.86484974e-06  5.86484974e-06  5.85327374e-04  7.06858022e-07  2.62672696e-12  1.19695920e-16  3.57320051e-03  3.62757302e-03  3.59708666e-03  3.59709301e-03  3.59709301e-03  3.59709301e-03  5.43725117e-05  2.38861525e-05  2.38925074e-05  2.38925074e-05  2.38925074e-05  3.04800044e-05  6.35488187e-09  1.71303943e-16  4.94396191e-17  -1.05664741e-03  -1.09471395e-03  -1.06430256e-03  -1.06430259e-03  -1.06430259e-03  -1.06430259e-03  3.80665423e-05  7.65514702e-06  7.65517729e-06  7.65517729e-06  7.65517729e-06  3.04113650e-05  3.02687157e-11  1.88651178e-17  4.33680869e-19
2.91479760e-02  -1.25287443e-08  1.52299803e-17  -6.11881848e-18  1.49755106e-18  3.40405909e-18  3.55077504e-18  1.25287443e-08  1.25287443e-08  1.25287443e-08  1.25287443e-08  1.25287443e-08  1.16792053e-17  9.66959353e-18  2.05322399e-18  1.46715950e-19  -5.34209914e-09  -1.71502882e-17  6.73830251e-18  -1.29691796e-18  -3.13878071e-18  -3.49210858e-18  5.34209912e-09  5.34209915e-09  5.34209914e-09  5.34209914e-09  5.34209914e-09  1.36581797e-17  1.02304111e-17  2.19519062e-18  3.53327868e-19  -2.32208681e-03  -2.91343632e-03  -2.32724243e-03  -2.32794948e-03  -2.32794948e-03  -2.32794948e-03  5.91349508e-04  5.15561555e-06  5.86266878e-06  5.86266615e-06  5.86266615e-06  5.85486842e-04  7.07050600e-07  2.62744297e-12  1.19262239e-16  3.57418061e-03  3.62856132e-03  3.59806666e-03  3.59807301e-03  3.59807301e-03  3.59807301e-03  5.43807115e-05  2.38860465e-05  2.38924031e-05  2.38924031e-05  2.38924031e-05  3.04883084e-05  6.35661321e-09  1.70870262e-16  4.90059382e-17  -1.05693728e-03  -1.09501220e-03  -1.06459252e-03  -1.06459255e-03  -1.06459255e-03  -1.06459255e-03  3.80749162e-05  7.65523552e-06  7.65526580e-06  7.65526580e-06  7.65526580e-06  3.04196504e-05  3.02769621e-11  1.90819582e-17  4.33680869e-19
2.97085140e-02  -1.27583665e-08  1.52341273e-17  -6.12048460e-18  1.49795883e-18  3.40498600e-18  3.55174190e-18  1.27583665e-08  1.27583665e-08  1.27583665e-08  1.27583665e-08  1.27583665e-08  1.16823854e-17  9.67222650e-18  2.05378307e-18  1.46755900e-19  -5.46449985e-09  -1.71549582e-17  6.74013731e-18  -1.29727110e-18  -3.13963538e-18  -3.49305946e-18  5.46449984e-09  5.46449986e-09  5.46449985e-09  5.46449985e-09  5.46449985e-09  1.36618987e-17  1.02331968e-17  2.19578836e-18  3.53424077e-19  -2.32272290e-03  -2.91422963e-03  -2.32787612e-03  -2.32858337e-03  -2.32858336e-03  -2.32858336e-03  5.91506735e-04  5.15322506e-06  5.86047081e-06  5.86046818e-06  5.86046818e-06  5.85646267e-04  7.07243126e-07  2.62815811e-12  1.19695920e-16  3.57516045e-03  3.62954936e-03  3.59904639e-03  3.59905275e-03  3.59905275e-03  3.59905275e-03  5.43889059e-05  2.38859374e-05  2.38922957e-05  2.38922957e-05  2.38922957e-05  3.04966102e-05  6.35834408e-09  1.70870262e-16  4.90059382e-17  -1.05722708e-03  -1.09531036e-03  -1.06488240e-03  -1.06488243e-03  -1.06488243e-03  -1.06488243e-03  3.80832851e-05  7.65532132e-06  7.65535161e-06  7.65535161e-06  7.65535161e-06  3.04279335e-05  3.02852066e-11  1.88651178e-17  4.33680869e-19
3.02690520e-02  -1.29873726e-08  1.52382732e-17  -6.12215026e-18  1.49836649e-18  3.40591265e-18  3.55270849e-18  1.29873726e-08  1.29873726e-08  1.29873726e-08  1.29873726e-08  1.29873726e-08  1.16855647e-17  9.67485875e-18  2.05434200e-18  1.46795839e-19  -5.58742144e-09  -1.71596268e-17  6.74197161e-18  -1.29762415e-18  -3.14048982e-18  -3.49401008e-18  5.58742142e-09  5.58742144e-09  5.58742143e-09  5.58742143e-09  5.58742143e-09  1.36656167e-17  1.02359817e-17  2.19638593e-18  3.53520260e-19  -2.32335882e-03  -2.91502273e-03  -2.32850964e-03  -2.32921708e-03  -2.32921708e-03  -2.32921708e-03  5.91663904e-04  5.15082030e-06  5.85825852e-06  5.85825589e-06  5.85825589e-06  5.85805648e-04  7.07435599e-07  2.62887368e-12  1.19695920e-16  3.57614003e-03  3.63053712e-03  3.60002585e-03  3.60003221e-03  3.60003221e-03  3.60003221e-03  5.43970949e-05  2.38858251e-05  2.38921851e-05  2.38921851e-05  2.38921851e-05  3.05049097e-05  6.36007447e-09  1.71303943e-16  4.94396191e-17  -1.05751680e-03  -1.09560845e-03  -1.06517220e-03  -1.06517223e-03  -1.06517223e-03  -1.06517223e-03  3.80916490e-05  7.65540443e-06  7.65543472e-06  7.65543472e-06  7.65543472e-06  3.04362143e-05  3.02934483e-11  1.90819582e-17  6.50521303e-19
3.08295900e-02  -1.32157515e-08  1.52424180e-17  -6.12381548e-18  1.49877404e-18  3.40683905e-18  3.55367482e-18  1.32157515e-08  1.32157515e-08  1.32157515e-08  1.32157515e-08  1.32157515e-08  1.16887432e-17  9.67749029e-18  2.05490077e-18  1.46835767e-19  -5.71085090e-09  -1.71642942e-17  6.74380541e-18  -1.29797710e-18  -3.14134403e-18  -3.49496044e-18  5.71085088e-09  5.71085091e-09  5.71085090e-09  5.71085090e-09  5.71085090e-09  1.36693337e-17  1.02387659e-17  2.19698335e-18  3.53616417e-19  -2.32399459e-03  -2.91581561e-03  -2.32914299e-03  -2.32985062e-03  -2.32985062e-03  -2.32985062e-03  5.91821015e-04  5.14840131e-06  5.85603196e-06  5.85602933e-06  5.85602933e-06  5.85964986e-04  7.07628020e-07  2.62958839e-12  1.20129601e-16  3.57711934e-03  3.63152462e-03  3.60100505e-03  3.60101142e-03  3.60101142e-03  3.60101142e-03  5.44052783e-05  2.38857095e-05  2.38920713e-05  2.38920713e-05  2.38920713e-05  3.05132070e-05  6.36180440e-09  1.71303943e-16  4.94396191e-17  -1.05780644e-03  -1.09590645e-03  -1.06546193e-03  -1.06546196e-03  -1.06546196e-03  -1.06546196e-03  3.81000080e-05  7.65548485e-06  7.65551515e-06  7.65551515e-06  7.65551515e-06  3.04444929e-05  3.03016882e-11  1.88651178e-17  4.33680869e-19
3.13901280e-02  -1.34434930e-08  1.52465617e-17  -6.12548023e-18  1.49918149e-18  3.40776520e-18  3.55464088e-18  1.34434931e-08  1.34434930e-08  1.34434930e-08  1.34434930e-08  1.34434930e-08  1.16919208e-17  9.68012112e-18  2.05545940e-18  1.46875684e-19  -5.83477671e-09  -1.71689603e-17  6.74563871e-18  -1.29832995e-18  -3.14219800e-18  -3.49591055e-18  5.83477669e-09  5.83477672e-09  5.83477671e-09  5.83477671e-09  5.83477671e-09  1.36730498e-17  1.02415493e-17  2.19758060e-18  3.53712547e-19  -2.32463020e-03  -2.91660827e-03  -2.32977617e-03  -2.33048399e-03  -2.33048399e-03  -2.33048399e-03  5.91978069e-04  5.14596814e-06  5.85379116e-06  5.85378853e-06  5.85378853e-06  5.86124280e-04  7.07820389e-07  2.63030353e-12  1.19695920e-16  3.57809840e-03  3.63251185e-03  3.60198399e-03  3.60199035e-03  3.60199035e-03  3.60199035e-03  5.44134563e-05  2.38855907e-05  2.38919543e-05  2.38919543e-05  2.38919543e-05  3.05215020e-05  6.36353386e-09  1.71303943e-16  4.94396191e-17  -1.05809601e-03  -1.09620437e-03  -1.06575157e-03  -1.06575160e-03  -1.06575160e-03  -1.06575160e-03  3.81083621e-05  7.65556260e-06  7.65559291e-06  7.65559291e-06  7.65559291e-06  3.04527692e-05  3.03099258e-11  1.88651178e-17  4.33680869e-19
3.19506660e-02  -1.36705862e-08  1.52507042e-17  -6.12714454e-18  1.49958882e-18  3.40869110e-18  3.55560669e-18  1.36705862e-08  1.36705862e-08  1.36705862e-08  1.36705862e-08  1.36705862e-08  1.16950975e-17  9.68275123e-18  2.05601787e-18  1.46915591e-19  -5.95918646e-09  -1.71736251e-17  6.74747152e-18  -1.29868271e-18  -3.14305174e-18  -3.49686040e-18  5.95918644e-09  5.95918647e-09  5.95918646e-09  5.95918646e-09  5.95918646e-09  1.36767648e-17  1.02443319e-17  2.19817768e-18  3.53808652e-19  -2.32526565e-03  -2.91740072e-03  -2.33040918e-03  -2.33111719e-03  -2.33111719e-03  -2.33111719e-03  5.92135065e-04  5.14352084e-06  5.85153617e-06  5.85153354e-06  5.85153354e-06  5.86283531e-04  7.08012705e-07  2.63101823e-12  1.19695920e-16  3.57907718e-03  3.63349881e-03  3.60296265e-03  3.60296902e-03  3.60296902e-03  3.60296902e-03  5.44216288e-05  2.38854687e-05  2.38918340e-05  2.38918340e-05  2.38918340e-05  3.05297948e-05  6.36526284e-09  1.71303943e-16  4.94396191e-17  -1.05838550e-03  -1.09650221e-03  -1.06604114e-03  -1.06604117e-03  -1.06604117e-03  -1.06604117e-03  3.81167113e-05  7.65563769e-06  7.65566800e-06  7.65566800e-06  7.65566800e-06  3.04610433e-05  3.03181610e-11  1.88651178e-17  4.33680869e-19
3.25112040e-02  -1.38970200e-08  1.52548456e-17  -6.12880839e-18  1.49999604e-18  3.40961674e-18  3.55657223e-18  1.38970200e-08  1.38970200e-08  1.38970200e-08  1.38970200e-08  1.38970200e-08  1.16982734e-17  9.68538062e-18  2.05657619e-18  1.46955486e-19  -6.08406816e-09  -1.71782887e-17  6.74930383e-18  -1.29903538e-18  -3.14390525e-18  -3.49780998e-18  6.08406815e-09  6.08406817e-09  6.08406816e-09  6.08406816e-09  6.08406816e-09  1.36804787e-17  1.02471138e-17  2.19877461e-18  3.53904730e-19  -2.32590095e-03  -2.91819295e-03  -2.33104201e-03  -2.33175022e-03  -2.33175021e-03  -2.33175021e-03  5.92292004e-04  5.14105945e-06  5.84926705e-06  5.84926442e-06  5.84926442e-06  5.86442739e-04  7.08204969e-07  2.63173251e-12  1.20129601e-16  3.58005571e-03  3.63448551e-03  3.60394105e-03  3.60394742e-03  3.60394742e-03  3.60394742e-03  5.44297957e-05  2.38853435e-05  2.38917105e-05  2.38917105e-05  2.38917105e-05  3.05380853e-05  6.36699136e-09  1.71303943e-16  4.94396191e-17  -1.05867492e-03  -1.09679998e-03  -1.06633063e-03  -1.06633066e-03  -1.06633066e-03  -1.06633066e-03  3.81250556e-05  7.65571012e-06  7.65574045e-06  7.65574045e-06  7.65574045e-06  3.04693151e-05  3.03263940e-11  1.90819582e-17  4.33680869e-19
3.30717420e-02  -1.41227840e-08  1.52589859e-17  -6.13047180e-18  1.50040315e-18  3.41054214e-18  3.55753751e-18  1.41227840e-08  1.41227840e-08  1.41227840e-08  1.41227840e-08  1.41227840e-08  1.17014484e-17  9.68800931e-18  2.05713436e-18  1.46995371e-19  -6.20940986e-09  -1.71829510e-17  6.75113564e-18  -1.29938794e-18  -3.14475853e-18  -3.49875932e-18  6.20940984e-09  6.20940987e-09  6.20940986e-09  6.20940986e-09  6.20940986e-09  1.36841917e-17  1.02498950e-17  2.19937137e-18  3.54000782e-19  -2.32653609e-03  -2.91898497e-03  -2.33167467e-03  -2.33238307e-03  -2.33238307e-03  -2.33238307e-03  5.92448885e-04  5.13858403e-06  5.84698384e-06  5.84698121e-06  5.84698121e-06  5.86601904e-04  7.08397181e-07  2.63244678e-12  1.19695920e-16  3.58103397e-03  3.63547193e-03  3.60491919e-03  3.60492556e-03  3.60492556e-03  3.60492556e-03  5.44379572e-05  2.38852149e-05  2.38915837e-05  2.38915837e-05  2.38915837e-05  3.05463735e-05  6.36871941e-09  1.71303943e-16  4.90059382e-17  -1.05896426e-03  -1.09709765e-03  -1.06662004e-03  -1.06662007e-03  -1.06662007e-03  -1.06662007e-03  3.81333950e-05  7.65577992e-06  7.65581025e-06  7.65581025e-06  7.65581025e-06  3.04775847e-05  3.03346248e-11  1.90819582e-17  4.33680869e-19
3.36322800e-02  -1.43478677e-08  1.52631250e-17  -6.13213475e-18  1.50081015e-18  3.41146728e-18  3.55850253e-18  1.43478677e-08  1.43478677e-08  1.43478677e-08  1.43478677e-08  1.43478677e-08  1.17046225e-17  9.69063728e-18  2.05769238e-18  1.47035245e-19  -6.33519923e-09  -1.71876121e-17  6.75296695e-18  -1.29974042e-18  -3.14561158e-18  -3.49970839e-18  6.33519922e-09  6.33519924e-09  6.33519923e-09  6.33519923e-09  6.33519923e-09  1.36879037e-17  1.02526753e-17  2.19996797e-18  3.54096809e-19  -2.32717107e-03  -2.91977678e-03  -2.33230716e-03  -2.33301575e-03  -2.33301575e-03  -2.33301575e-03  5.92605710e-04  5.13609461e-06  5.84468658e-06  5.84468395e-06  5.84468395e-06  5.86761026e-04  7.08589341e-07  2.63316105e-12  1.19695920e-16  3.58201198e-03  3.63645809e-03  3.60589706e-03  3.60590343e-03  3.60590343e-03  3.60590343e-03  5.44461131e-05  2.38850831e-05  2.38914536e-05  2.38914536e-05  2.38914536e-05  3.05546595e-05  6.37044698e-09  1.71303943e-16  4.94396191e-17  -1.05925352e-03  -1.09739525e-03  -1.06690937e-03  -1.06690940e-03  -1.06690940e-03  -1.06690940e-03  3.81417295e-05  7.65584708e-06  7.65587742e-06  7.65587742e-06  7.65587742e-06  3.04858521e-05  3.03428532e-11  1.90819582e-17  4.33680869e-19
3.41928180e-02  -1.45722596e-08  1.52672630e-17  -6.13379725e-18  1.50121704e-18  3.41239217e-18  3.55946728e-18  1.45722596e-08  1.45722596e-08  1.45722596e-08  1.45722596e-08  1.45722596e-08  1.17077958e-17  9.69326453e-18  2.05825025e-18  1.47075108e-19  -6.46142429e-09  -1.71922719e-17  6.75479776e-18  -1.30009279e-18  -3.14646440e-18  -3.50065720e-18  6.46142427e-09  6.46142430e-09  6.46142429e-09  6.46142429e-09  6.46142429e-09  1.36916147e-17  1.02554550e-17  2.20056441e-18  3.54192809e-19  -2.32780589e-03  -2.92056836e-03  -2.33293948e-03  -2.33364826e-03  -2.33364826e-03  -2.33364826e-03  5.92762477e-04  5.13359124e-06  5.84237532e-06  5.84237269e-06  5.84237269e-06  5.86920104e-04  7.08781449e-07  2.63387489e-12  1.19695920e-16  3.58298972e-03  3.63744398e-03  3.60687467e-03  3.60688104e-03  3.60688104e-03  3.60688104e-03  5.44542635e-05  2.38849480e-05  2.38913202e-05  2.38913202e-05  2.38913202e-05  3.05629433e-05  6.37217409e-09  1.71737624e-16  4.94396191e-17  -1.05954271e-03  -1.09769277e-03  -1.06719862e-03  -1.06719865e-03  -1.06719865e-03  -1.06719865e-03  3.81500591e-05  7.65591162e-06  7.65594197e-06  7.65594197e-06  7.65594197e-06  3.04941172e-05  3.03510797e-11  1.88651178e-17  4.33680869e-19
3.47533560e-02  -1.47959496e-08  1.52714000e-17  -6.13545930e-18  1.50162381e-18  3.41331682e-18  3.56043178e-18  1.47959496e-08  1.47959496e-08  1.47959496e-08  1.47959496e-08  1.47959496e-08  1.17109682e-17  9.69589108e-18  2.05880796e-18  1.47114960e-19  -6.58807340e-09  -1.71969304e-17  6.75662808e-18  -1.30044507e-18  -3.14731698e-18  -3.50160576e-18  6.58807338e-09  6.58807340e-09  6.58807340e-09  6.58807339e-09  6.58807339e-09  1.36953246e-17  1.02582338e-17  2.20116069e-18  3.54288783e-19  -2.32844055e-03  -2.92135974e-03  -2.33357163e-03  -2.33428060e-03  -2.33428060e-03  -2.33428060e-03  5.92919187e-04  5.13107397e-06  5.84005011e-06  5.84004748e-06  5.84004748e-06  5.87079140e-04  7.08973504e-07  2.63458829e-12  1.20129601e-16  3.58396720e-03  3.63842960e-03  3.60785201e-03  3.60785838e-03  3.60785838e-03  3.60785838e-03  5.44624082e-05  2.38848095e-05  2.38911834e-05  2.38911834e-05  2.38911834e-05  3.05712248e-05  6.37390074e-09  1.71303943e-16  4.90059382e-17  -1.05983182e-03  -1.09799021e-03  -1.06748780e-03  -1.06748783e-03  -1.06748783e-03  -1.06748783e-03  3.81583840e-05  7.65597356e-06  7.65600391e-06  7.65600391e-06  7.65600391e-06  3.05023800e-05  3.03593038e-11  1.90819582e-17  4.33680869e-19
3.53138940e-02  -1.50189267e-08  1.52755357e-17  -6.13712090e-18  1.50203048e-18  3.41424121e-18  3.56139601e-18  1.50189267e-08  1.50189267e-08  1.50189267e-08  1.50189267e-08  1.50189267e-08  1.17141397e-17  9.69851691e-18  2.05936553e-18  1.47154802e-19  -6.71513390e-09  -1.72015876e-17  6.75845791e-18  -1.30079726e-18  -3.14816933e-18  -3.50255407e-18  6.71513388e-09  6.71513391e-09  6.71513390e-09  6.71513390e-09  6.71513390e-09  1.36990336e-17  1.02610120e-17  2.20175681e-18  3.54384731e-19  -2.32907506e-03  -2.92215090e-03  -2.33420360e-03  -2.33491277e-03  -2.33491277e-03  -2.33491277e-03  5.93075840e-04  5.12854285e-06  5.83771100e-06  5.83770836e-06  5.83770836e-06  5.87238132e-04  7.09165508e-07  2.63530213e-12  1.19695920e-16  3.58494441e-03  3.63941496e-03  3.60882908e-03  3.60883546e-03  3.60883546e-03  3.60883546e-03  5.44705475e-05  2.38846677e-05  2.38910434e-05  2.38910434e-05  2.38910434e-05  3.05795041e-05  6.37562691e-09  1.71303943e-16  4.94396191e-17  -1.06012086e-03  -1.09828757e-03  -1.06777689e-03  -1.06777692e-03  -1.06777692e-03  -1.06777692e-03  3.81667039e-05  7.65603289e-06  7.65606326e-06  7.65606326e-06  7.65606326e-06  3.05106407e-05  3.03675258e-11  1.90819582e-17  4.33680869e-19
3.58744320e-02  -1.52411803e-08  1.52796704e-17  -6.13878205e-18  1.50243704e-18  3.41516535e-18  3.56235998e-18  1.52411803e-08  1.52411803e-08  1.52411803e-08  1.52411803e-08  1.52411803e-08  1.17173104e-17  9.70114203e-18  2.05992294e-18  1.47194633e-19  -6.84259433e-09  -1.72062436e-17  6.76028724e-18  -1.30114935e-18  -3.14902146e-18  -3.50350211e-18  6.84259432e-09  6.84259434e-09  6.84259433e-09  6.84259433e-09  6.84259433e-09  1.37027415e-17  1.02637893e-17  2.20235276e-18  3.54480653e-19  -2.32970941e-03  -2.92294185e-03  -2.33483541e-03  -2.33554477e-03  -2.33554476e-03  -2.33554476e-03  5.93232437e-04  5.12599793e-06  5.83535802e-06  5.83535539e-06  5.83535539e-06  5.87397081e-04  7.09357459e-07  2.63601510e-12  1.20129601e-16  3.58592137e-03  3.64040005e-03  3.60980589e-03  3.60981227e-03  3.60981227e-03  3.60981227e-03  5.44786811e-05  2.38845226e-05  2.38909000e-05  2.38909000e-05  2.38909000e-05  3.05877811e-05  6.37735262e-09  1.71737624e-16  4.94396191e-17  -1.06040982e-03  -1.09858484e-03  -1.06806591e-03  -1.06806594e-03  -1.06806594e-03  -1.06806594e-03  3.81750191e-05  7.65608963e-06  7.65612001e-06  7.65612001e-06  7.65612001e-06  3.05188991e-05  3.03757455e-11  1.88651178e-17  4.33680869e-19
3.64349700e-02  -1.54626996e-08  1.52838040e-17  -6.14044275e-18  1.50284349e-18  3.41608924e-18  3.56332369e-18  1.54626996e-08  1.54626996e-08  1.54626996e-08  1.54626996e-08  1.54626996e-08  1.17204803e-17  9.70376644e-18  2.06048020e-18  1.47234453e-19  -6.97044225e-09  -1.72108984e-17  6.76211607e-18  -1.30150134e-18  -3.14987335e-18  -3.50444990e-18  6.97044224e-09  6.97044226e-09  6.97044225e-09  6.97044225e-09  6.97044225e-09  1.37064485e-17  1.02665660e-17  2.20294856e-18  3.54576550e-19  -2.33034360e-03  -2.92373258e-03  -2.33546704e-03  -2.33617659e-03  -2.33617659e-03  -2.33617659e-03  5.93388976e-04  5.12343924e-06  5.83299123e-06  5.83298860e-06  5.83298860e-06  5.87555987e-04  7.09549359e-07  2.63672851e-12  1.20129601e-16  3.58689806e-03  3.64138487e-03  3.61078244e-03  3.61078882e-03  3.61078882e-03  3.61078882e-03  5.44868091e-05  2.38843741e-05  2.38907532e-05  2.38907532e-05  2.38907532e-05  3.05960559e-05  6.37907786e-09  1.71737624e-16  4.94396191e-17  -1.06069871e-03  -1.09888204e-03  -1.06835485e-03  -1.06835488e-03  -1.06835488e-03  -1.06835488e-03  3.81833294e-05  7.65614380e-06  7.65617419e-06  7.65617419e-06  7.65617419e-06  3.05271552e-05  3.03839629e-11  1.90819582e-17  4.33680869e-19
3.69955080e-02  -1.56834737e-08  1.52879364e-17  -6.14210300e-18  1.50324983e-18  3.41701288e-18  3.56428714e-18  1.56834737e-08  1.56834737e-08  1.56834737e-08  1.56834737e-08  1.56834737e-08  1.17236492e-17  9.70639015e-18  2.06103732e-18  1.47274262e-19  -7.09866623e-09  -1.72155519e-17  6.76394441e-18  -1.30185324e-18  -3.15072501e-18  -3.50539743e-18  7.09866622e-09  7.09866624e-09  7.09866623e-09  7.09866623e-09  7.09866623e-09  1.37101544e-17  1.02693418e-17  2.20354419e-18  3.54672420e-19  -2.33097764e-03  -2.92452310e-03  -2.33609850e-03  -2.33680825e-03  -2.33680824e-03  -2.33680824e-03  5.93545459e-04  5.12086683e-06  5.83061067e-06  5.83060804e-06  5.83060804e-06  5.87714851e-04  7.09741207e-07  2.63744105e-12  1.20129601e-16  3.58787450e-03  3.64236943e-03  3.61175872e-03  3.61176510e-03  3.61176510e-03  3.61176510e-03  5.44949315e-05  2.38842222e-05  2.38906030e-05  2.38906030e-05  2.38906030e-05  3.06043285e-05  6.38080263e-09  1.71737624e-16  4.94396191e-17  -1.06098752e-03  -1.09917915e-03  -1.06864371e-03  -1.06864374e-03  -1.06864374e-03  -1.06864374e-03  3.81916349e-05  7.65619540e-06  7.65622579e-06  7.65622579e-06  7.65622579e-06  3.05354092e-05  3.03921781e-11  1.88651178e-17  4.33680869e-19
3.75560460e-02  -1.59034916e-08  1.52920677e-17  -6.14376281e-18  1.50365606e-18  3.41793627e-18  3.56525033e-18  1.59034917e-08  1.59034916e-08  1.59034916e-08  1.59034916e-08  1.59034916e-08  1.17268174e-17  9.70901314e-18  2.06159428e-18  1.47314060e-19  -7.22725410e-09  -1.72202041e-17  6.76577226e-18  -1.30220505e-18  -3.15157644e-18  -3.50634471e-18  7.22725409e-09  7.22725411e-09  7.22725410e-09  7.22725410e-09  7.22725410e-09  1.37138594e-17  1.02721170e-17  2.20413966e-18  3.54768265e-19  -2.33161152e-03  -2.92531340e-03  -2.33672980e-03  -2.33743973e-03  -2.33743973e-03  -2.33743973e-03  5.93701885e-04  5.11828075e-06  5.82821640e-06  5.82821376e-06  5.82821376e-06  5.87873671e-04  7.09933003e-07  2.63815358e-12  1.20129601e-16  3.58885067e-03  3.64335372e-03  3.61273474e-03  3.61274112e-03  3.61274112e-03  3.61274112e-03  5.45030483e-05  2.38840669e-05  2.38904495e-05  2.38904495e-05  2.38904495e-05  3.06125988e-05  6.38252694e-09  1.71737624e-16  4.94396191e-17  -1.06127625e-03  -1.09947619e-03  -1.06893250e-03  -1.06893253e-03  -1.06893253e-03  -1.06893253e-03  3.81999357e-05  7.65624444e-06  7.65627484e-06  7.65627484e-06  7.65627484e-06  3.05436608e-05  3.04003912e-11  1.88651178e-17  4.33680869e-19
3.81165840e-02  -1.61227431e-08  1.52961979e-17  -6.14542216e-18  1.50406218e-18  3.41885942e-18  3.56621326e-18  1.61227432e-08  1.61227431e-08  1.61227431e-08  1.61227431e-08  1.61227431e-08  1.17299846e-17  9.71163543e-18  2.06215109e-18  1.47353848e-19  -7.35619369e-09  -1.72248550e-17  6.76759961e-18  -1.30255676e-18  -3.15242765e-18  -3.50729173e-18  7.35619368e-09  7.35619370e-09  7.35619369e-09  7.35619369e-09  7.35619369e-09  1.37175633e-17  1.02748913e-17  2.20473497e-18  3.54864083e-19  -2.33224524e-03  -2.92610349e-03  -2.33736092e-03  -2.33807105e-03  -2.33807104e-03  -2.33807104e-03  5.93858254e-04  5.11568105e-06  5.82580844e-06  5.82580580e-06  5.82580580e-06  5.88032449e-04  7.10124747e-07  2.63886656e-12  1.20129601e-16  3.58982659e-03  3.64433775e-03  3.61371050e-03  3.61371688e-03  3.61371688e-03  3.61371688e-03  5.45111594e-05  2.38839082e-05  2.38902925e-05  2.38902925e-05  2.38902925e-05  3.06208669e-05  6.38425078e-09  1.72171305e-16  4.98732999e-17  -1.06156491e-03  -1.09977314e-03  -1.06922120e-03  -1.06922123e-03  -1.06922123e-03  -1.06922123e-03  3.82082317e-05  7.65629094e-06  7.65632135e-06  7.65632135e-06  7.65632135e-06  3.05519103e-05  3.04086019e-11  1.88651178e-17  4.33680869e-19
3.86771220e-02  -1.63412172e-08  1.53003270e-17  -6.14708107e-18  1.50446819e-18  3.41978231e-18  3.56717594e-18  1.63412172e-08  1.63412172e-08  1.63412172e-08  1.63412172e-08  1.63412172e-08  1.17331511e-17  9.71425700e-18  2.06270775e-18  1.47393625e-19  -7.48547330e-09  -1.72295048e-17  6.76942647e-18  -1.30290837e-18  -3.15327862e-18  -3.50823849e-18  7.48547328e-09  7.48547331e-09  7.48547330e-09  7.48547330e-09  7.48547330e-09  1.37212663e-17  1.02776650e-17  2.20533012e-18  3.54959876e-19  -2.33287880e-03  -2.92689337e-03  -2.33799187e-03  -2.33870219e-03  -2.33870219e-03  -2.33870219e-03  5.94014567e-04  5.11306778e-06  5.82338685e-06  5.82338421e-06  5.82338422e-06  5.88191183e-04  7.10316440e-07  2.63957866e-12  1.20129601e-16  3.59080224e-03  3.64532151e-03  3.61468599e-03  3.61469237e-03  3.61469237e-03  3.61469237e-03  5.45192648e-05  2.38837461e-05  2.38901321e-05  2.38901321e-05  2.38901321e-05  3.06291327e-05  6.38597416e-09  1.71737624e-16  4.94396191e-17  -1.06185350e-03  -1.10007002e-03  -1.06950983e-03  -1.06950986e-03  -1.06950986e-03  -1.06950986e-03  3.82165229e-05  7.65633490e-06  7.65636531e-06  7.65636531e-06  7.65636531e-06  3.05601576e-05  3.04168103e-11  1.90819582e-17  4.33680869e-19
3.92376600e-02  -1.65589032e-08  1.53044550e-17  -6.14873953e-18  1.50487409e-18  3.42070495e-18  3.56813835e-18  1.65589032e-08  1.65589032e-08  1.65589032e-08  1.65589032e-08  1.65589032e-08  1.17363166e-17  9.71687787e-18  2.06326426e-18  1.47433391e-19  -7.61508106e-09  -1.72341532e-17  6.77125284e-18  -1.30325989e-18  -3.15412936e-18  -3.50918500e-18  7.61508104e-09  7.61508107e-09  7.61508106e-09  7.61508106e-09  7.61508106e-09  1.37249682e-17  1.02804378e-17  2.20592511e-18  3.55055643e-19  -2.33351221e-03  -2.92768303e-03  -2.33862265e-03  -2.33933316e-03  -2.33933316e-03  -2.33933316e-03  5.94170824e-04  5.11044096e-06  5.82095168e-06  5.82094904e-06  5.82094904e-06  5.88349875e-04  7.10508080e-07  2.64029076e-12  1.20129601e-16  3.59177764e-03  3.64630500e-03  3.61566122e-03  3.61566760e-03  3.61566760e-03  3.61566760e-03  5.45273646e-05  2.38835805e-05  2.38899682e-05  2.38899682e-05  2.38899682e-05  3.06373964e-05  6.38769707e-09  1.72171305e-16  4.94396191e-17  -1.06214200e-03  -1.10036681e-03  -1.06979838e-03  -1.06979841e-03  -1.06979841e-03  -1.06979841e-03  3.82248093e-05  7.65637633e-06  7.65640675e-06  7.65640675e-06  7.65640675e-06  3.05684026e-05  3.04250167e-11  1.88651178e-17  4.33680869e-19
3.97981980e-02  -1.67757901e-08  1.53085818e-17  -6.15039754e-18  1.50527988e-18  3.42162735e-18  3.56910050e-18  1.67757901e-08  1.67757901e-08  1.67757901e-08  1.67757901e-08  1.67757901e-08  1.17394813e-17  9.71949804e-18  2.06382062e-18  1.47473147e-19  -7.74500530e-09  -1.72388004e-17  6.77307871e-18  -1.30361132e-18  -3.15497987e-18  -3.51013126e-18  7.74500528e-09  7.74500531e-09  7.74500530e-09  7.74500530e-09  7.74500530e-09  1.37286692e-17  1.02832100e-17  2.20651994e-18  3.55151384e-19  -2.33414546e-03  -2.92847249e-03  -2.33925326e-03  -2.33996396e-03  -2.33996396e-03  -2.33996396e-03  5.94327024e-04  5.10780067e-06  5.81850298e-06  5.81850034e-06  5.81850034e-06  5.88508524e-04  7.10699669e-07  2.64100330e-12  1.20129601e-16  3.59275277e-03  3.64728823e-03  3.61663618e-03  3.61664257e-03  3.61664257e-03  3.61664257e-03  5.45354587e-05  2.38834115e-05  2.38898009e-05  2.38898009e-05  2.38898009e-05  3.06456578e-05  6.38941952e-09  1.72171305e-16  4.98732999e-17  -1.06243044e-03  -1.10066353e-03  -1.07008685e-03  -1.07008688e-03  -1.07008688e-03  -1.07008688e-03  3.82330910e-05  7.65641525e-06  7.65644568e-06  7.65644568e-06  7.65644568e-06  3.05766454e-05  3.04332208e-11  1.90819582e-17  4.33680869e-19
4.03587360e-02  -1.69918671e-08  1.53127076e-17  -6.15205511e-18  1.50568556e-18  3.42254950e-18  3.57006239e-18  1.69918671e-08  1.69918671e-08  1.69918671e-08  1.69918671e-08  1.69918671e-08  1.17426452e-17  9.72211749e-18  2.06437683e-18  1.47512892e-19  -7.87523353e-09  -1.72434464e-17  6.77490409e-18  -1.30396265e-18  -3.15583016e-18  -3.51107726e-18  7.87523351e-09  7.87523353e-09  7.87523353e-09  7.87523352e-09  7.87523352e-09  1.37323691e-17  1.02859813e-17  2.20711461e-18  3.55247099e-19  -2.33477856e-03  -2.92926173e-03  -2.33988370e-03  -2.34059460e-03  -2.34059460e-03  -2.34059460e-03  5.94483168e-04  5.10514693e-06  5.81604078e-06  5.81603813e-06  5.81603813e-06  5.88667130e-04  7.10891207e-07  2.64171454e-12  1.20129601e-16  3.59372765e-03  3.64827119e-03  3.61761089e-03  3.61761728e-03  3.61761728e-03  3.61761728e-03  5.45435471e-05  2.38832390e-05  2.38896301e-05  2.38896301e-05  2.38896301e-05  3.06539169e-05  6.39114150e-09  1.72171305e-16  4.98732999e-17  -1.06271879e-03  -1.10096016e-03  -1.07037525e-03  -1.07037528e-03  -1.07037528e-03  -1.07037528e-03  3.82413680e-05  7.65645166e-06  7.65648210e-06  7.65648210e-06  7.65648210e-06  3.05848859e-05  3.04414228e-11  1.90819582e-17  4.33680869e-19
4.09192740e-02  -1.72071240e-08  1.53168322e-17  -6.15371222e-18  1.50609113e-18  3.42347140e-18  3.57102402e-18  1.72071240e-08  1.72071240e-08  1.72071240e-08  1.72071240e-08  1.72071240e-08  1.17458082e-17  9.72473625e-18  2.06493289e-18  1.47552626e-19  -8.00575416e-09  -1.72480911e-17  6.77672898e-18  -1.30431388e-18  -3.15668021e-18  -3.51202300e-18  8.00575415e-09  8.00575417e-09  8.00575416e-09  8.00575416e-09  8.00575416e-09  1.37360681e-17  1.02887520e-17  2.20770912e-18  3.55342788e-19  -2.33541150e-03  -2.93005075e-03  -2.34051398e-03  -2.34122506e-03  -2.34122506e-03  -2.34122506e-03  5.94639256e-04  5.10247979e-06  5.81356513e-06  5.81356249e-06  5.81356249e-06  5.88825694e-04  7.11082693e-07  2.64242621e-12  1.20563282e-16  3.59470226e-03  3.64925389e-03  3.61858533e-03  3.61859172e-03  3.61859172e-03  3.61859172e-03  5.45516297e-05  2.38830630e-05  2.38894559e-05  2.38894559e-05  2.38894559e-05  3.06621739e-05  6.39286302e-09  1.72171305e-16  4.94396191e-17  -1.06300708e-03  -1.10125672e-03  -1.07066356e-03  -1.07066359e-03  -1.07066359e-03  -1.07066359e-03  3.82496403e-05  7.65648557e-06  7.65651602e-06  7.65651602e-06  7.65651602e-06  3.05931243e-05  3.04496226e-11  1.88651178e-17  4.33680869e-19
4.14798120e-02  -1.74215493e-08  1.53209557e-17  -6.15536890e-18  1.50649659e-18  3.42439305e-18  3.57198540e-18  1.74215494e-08  1.74215493e-08  1.74215493e-08  1.74215493e-08  1.74215493e-08  1.17489703e-17  9.72735429e-18  2.06548880e-18  1.47592349e-19  -8.13655547e-09  -1.72527345e-17  6.77855338e-18  -1.30466502e-18  -3.15753004e-18  -3.51296849e-18  8.13655545e-09  8.13655547e-09  8.13655546e-09  8.13655546e-09  8.13655546e-09  1.37397660e-17  1.02915219e-17  2.20830347e-18  3.55438452e-19  -2.33604428e-03  -2.93083957e-03  -2.34114408e-03  -2.34185535e-03  -2.34185535e-03  -2.34185535e-03  5.94795288e-04  5.09979931e-06  5.81107608e-06  5.81107343e-06  5.81107343e-06  5.88984214e-04  7.11274127e-07  2.64313788e-12  1.20563282e-16  3.59567662e-03  3.65023633e-03  3.61955950e-03  3.61956590e-03  3.61956590e-03  3.61956590e-03  5.45597067e-05  2.38828835e-05  2.38892781e-05  2.38892781e-05  2.38892781e-05  3.06704286e-05  6.39458408e-09  1.72171305e-16  4.94396191e-17  -1.06329528e-03  -1.10155319e-03  -1.07095180e-03  -1.07095183e-03  -1.07095183e-03  -1.07095183e-03  3.82579079e-05  7.65651700e-06  7.65654746e-06  7.65654746e-06  7.65654746e-06  3.06013604e-05  3.04578199e-11  1.90819582e-17  6.50521303e-19
4.20403500e-02  -1.76351330e-08  1.53250781e-17  -6.15702512e-18  1.50690194e-18  3.42531445e-18  3.57294651e-18  1.76351330e-08  1.76351329e-08  1.76351330e-08  1.76351330e-08  1.76351330e-08  1.17521316e-17  9.72997164e-18  2.06604457e-18  1.47632062e-19  -8.26762586e-09  -1.72573767e-17  6.78037729e-18  -1.30501607e-18  -3.15837964e-18  -3.51391373e-18  8.26762584e-09  8.26762587e-09  8.26762586e-09  8.26762586e-09  8.26762585e-09  1.37434630e-17  1.02942910e-17  2.20889766e-18  3.55534090e-19  -2.33667690e-03  -2.93162817e-03  -2.34177401e-03  -2.34248548e-03  -2.34248548e-03  -2.34248548e-03  5.94951264e-04  5.09710552e-06  5.80857367e-06  5.80857103e-06  5.80857103e-06  5.89142693e-04  7.11465510e-07  2.64384912e-12  1.20129601e-16  3.59665072e-03  3.65121850e-03  3.62053342e-03  3.62053982e-03  3.62053982e-03  3.62053982e-03  5.45677779e-05  2.38827005e-05  2.38890968e-05  2.38890968e-05  2.38890968e-05  3.06786811e-05  6.39630467e-09  1.72171305e-16  4.94396191e-17  -1.06358342e-03  -1.10184959e-03  -1.07123996e-03  -1.07123999e-03  -1.07123999e-03  -1.07123999e-03  3.82661708e-05  7.65654596e-06  7.65657643e-06  7.65657643e-06  7.65657643e-06  3.06095943e-05  3.04660153e-11  1.90819582e-17  4.33680869e-19
4.26008880e-02  -1.78478634e-08  1.53291994e-17  -6.15868091e-18  1.50730719e-18  3.42623560e-18  3.57390737e-18  1.78478635e-08  1.78478634e-08  1.78478634e-08  1.78478635e-08  1.78478635e-08  1.17552921e-17  9.73258827e-18  2.06660018e-18  1.47671764e-19  -8.39895318e-09  -1.72620177e-17  6.78220070e-18  -1.30536702e-18  -3.15922901e-18  -3.51485871e-18  8.39895316e-09  8.39895318e-09  8.39895317e-09  8.39895317e-09  8.39895317e-09  1.37471590e-17  1.02970594e-17  2.20949169e-18  3.55629702e-19  -2.33730937e-03  -2.93241656e-03  -2.34240377e-03  -2.34311543e-03  -2.34311543e-03  -2.34311543e-03  5.95107183e-04  5.09439847e-06  5.80605795e-06  5.80605531e-06  5.80605531e-06  5.89301128e-04  7.11656841e-07  2.64455992e-12  1.20563282e-16  3.59762456e-03  3.65220040e-03  3.62150707e-03  3.62151347e-03  3.62151347e-03  3.62151347e-03  5.45758433e-05  2.38825139e-05  2.38889119e-05  2.38889119e-05  2.38889119e-05  3.06869314e-05  6.39802480e-09  1.72171305e-16  4.98732999e-17  -1.06387147e-03  -1.10214590e-03  -1.07152805e-03  -1.07152808e-03  -1.07152808e-03  -1.07152808e-03  3.82744290e-05  7.65657245e-06  7.65660293e-06  7.65660293e-06  7.65660293e-06  3.06178260e-05  3.04742084e-11  1.90819582e-17  4.33680869e-19
4.31614260e-02  -1.80597307e-08  1.53333196e-17  -6.16033624e-18  1.50771232e-18  3.42715651e-18  3.57486797e-18  1.80597308e-08  1.80597307e-08  1.80597308e-08  1.80597308e-08  1.80597308e-08  1.17584517e-17  9.73520421e-18  2.06715564e-18  1.47711455e-19  -8.53052542e-09  -1.72666574e-17  6.78402363e-18  -1.30571788e-18  -3.16007815e-18  -3.51580344e-18  8.53052541e-09  8.53052543e-09  8.53052542e-09  8.53052542e-09  8.53052542e-09  1.37508539e-17  1.02998271e-17  2.21008556e-18  3.55725289e-19  -2.33794169e-03  -2.93320474e-03  -2.34303337e-03  -2.34374522e-03  -2.34374521e-03  -2.34374521e-03  5.95263047e-04  5.09167821e-06  5.80352897e-06  5.80352633e-06  5.80352633e-06  5.89459521e-04  7.11848121e-07  2.64527072e-12  1.20563282e-16  3.59859814e-03  3.65318205e-03  3.62248047e-03  3.62248687e-03  3.62248687e-03  3.62248687e-03  5.45839030e-05  2.38823238e-05  2.38887235e-05  2.38887235e-05  2.38887235e-05  3.06951794e-05  6.39974447e-09  1.72171305e-16  4.94396191e-17  -1.06415946e-03  -1.10244214e-03  -1.07181605e-03  -1.07181608e-03  -1.07181608e-03  -1.07181608e-03  3.82826825e-05  7.65659649e-06  7.65662697e-06  7.65662697e-06  7.65662697e-06  3.06260555e-05  3.04823992e-11  1.90819582e-17  4.33680869e-19
4.37219640e-02  -1.82707236e-08  1.53374387e-17  -6.16199113e-18  1.50811735e-18  3.42807717e-18  3.57582831e-18  1.82707237e-08  1.82707236e-08  1.82707236e-08  1.82707236e-08  1.82707236e-08  1.17616104e-17  9.73781944e-18  2.06771096e-18  1.47751136e-19  -8.66233135e-09  -1.72712958e-17  6.78584607e-18  -1.30606864e-18  -3.16092706e-18  -3.51674791e-18  8.66233134e-09  8.66233136e-09  8.66233135e-09  8.66233135e-09  8.66233135e-09  1.37545479e-17  1.03025940e-17  2.21067927e-18  3.55820850e-19  -2.33857385e-03  -2.93399270e-03  -2.34366279e-03  -2.34437483e-03  -2.34437483e-03  -2.34437483e-03  5.95418856e-04  5.08894477e-06  5.80098677e-06  5.80098412e-06  5.80098412e-06  5.89617872e-04  7.12039349e-07  2.64598152e-12  1.20563282e-16  3.59957147e-03  3.65416342e-03  3.62345360e-03  3.62346000e-03  3.62346000e-03  3.62346000e-03  5.45919569e-05  2.38821301e-05  2.38885316e-05  2.38885316e-05  2.38885316e-05  3.07034253e-05  6.40146367e-09  1.72171305e-16  4.94396191e-17  -1.06444736e-03  -1.10273830e-03  -1.07210398e-03  -1.07210401e-03  -1.07210401e-03  -1.07210401e-03  3.82909314e-05  7.65661809e-06  7.65664858e-06  7.65664858e-06  7.65664858e-06  3.06342828e-05  3.04905879e-11  1.90819582e-17  4.33680869e-19
4.42825020e-02  -1.84808315e-08  1.53415567e-17  -6.16364558e-18  1.50852227e-18  3.42899758e-18  3.57678839e-18  1.84808315e-08  1.84808315e-08  1.84808315e-08  1.84808315e-08  1.84808315e-08  1.17647683e-17  9.74043397e-18  2.06826612e-18  1.47790806e-19  -8.79435903e-09  -1.72759330e-17  6.78766801e-18  -1.30641931e-18  -3.16177575e-18  -3.51769213e-18  8.79435901e-09  8.79435903e-09  8.79435902e-09  8.79435902e-09  8.79435902e-09  1.37582409e-17  1.03053601e-17  2.21127282e-18  3.55916385e-19  -2.33920585e-03  -2.93478046e-03  -2.34429205e-03  -2.34500428e-03  -2.34500428e-03  -2.34500428e-03  5.95574608e-04  5.08619822e-06  5.79843139e-06  5.79842875e-06  5.79842875e-06  5.89776179e-04  7.12230526e-07  2.64669146e-12  1.20563282e-16  3.60054453e-03  3.65514454e-03  3.62442647e-03  3.62443287e-03  3.62443287e-03  3.62443287e-03  5.46000050e-05  2.38819329e-05  2.38883360e-05  2.38883360e-05  2.38883360e-05  3.07116689e-05  6.40318242e-09  1.72604986e-16  4.94396191e-17  -1.06473520e-03  -1.10303437e-03  -1.07239183e-03  -1.07239186e-03  -1.07239186e-03  -1.07239186e-03  3.82991756e-05  7.65663725e-06  7.65666775e-06  7.65666775e-06  7.65666775e-06  3.06425079e-05  3.04987745e-11  1.90819582e-17  4.33680869e-19
4.48430400e-02  -1.86900435e-08  1.53456736e-17  -6.16529959e-18  1.50892708e-18  3.42991775e-18  3.57774821e-18  1.86900436e-08  1.86900435e-08  1.86900435e-08  1.86900435e-08  1.86900435e-08  1.17679254e-17  9.74304780e-18  2.06882114e-18  1.47830465e-19  -8.92659621e-09  -1.72805690e-17  6.78948947e-18  -1.30676989e-18  -3.16262420e-18  -3.51863610e-18  8.92659619e-09  8.92659622e-09  8.92659621e-09  8.92659621e-09  8.92659621e-09  1.37619329e-17  1.03081256e-17  2.21186621e-18  3.56011894e-19  -2.33983769e-03  -2.93556800e-03  -2.34492113e-03  -2.34563356e-03  -2.34563356e-03  -2.34563356e-03  5.95730305e-04  5.08343859e-06  5.79586289e-06  5.79586024e-06  5.79586024e-06  5.89934445e-04  7.12421652e-07  2.64740183e-12  1.20563282e-16  3.60151734e-03  3.65612539e-03  3.62539908e-03  3.62540548e-03  3.62540548e-03  3.62540548e-03  5.46080472e-05  2.38817320e-05  2.38881369e-05  2.38881369e-05  2.38881369e-05  3.07199103e-05  6.40490070e-09  1.72604986e-16  4.98732999e-17  -1.06502295e-03  -1.10333037e-03  -1.07267961e-03  -1.07267964e-03  -1.07267964e-03  -1.07267964e-03  3.83074152e-05  7.65665399e-06  7.65668449e-06  7.65668449e-06  7.65668449e-06  3.06507308e-05  3.05069587e-11  1.88651178e-17  4.33680869e-19
4.54035780e-02  -1.88983488e-08  1.53497894e-17  -6.16695315e-18  1.50933178e-18  3.43083767e-18  3.57870778e-18  1.88983489e-08  1.88983488e-08  1.88983488e-08  1.88983488e-08  1.88983488e-08  1.17710816e-17  9.74566093e-18  2.06937600e-18  1.47870114e-19  -9.05903189e-09  -1.72852037e-17  6.79131044e-18  -1.30712037e-18  -3.16347243e-18  -3.51957981e-18  9.05903187e-09  9.05903189e-09  9.05903188e-09  9.05903188e-09  9.05903188e-09  1.37656239e-17  1.03108903e-17  2.21245944e-18  3.56107378e-19  -2.34046939e-03  -2.93635533e-03  -2.34555005e-03  -2.34626267e-03  -2.34626266e-03  -2.34626266e-03  5.95885946e-04  5.08066592e-06  5.79328129e-06  5.79327864e-06  5.79327864e-06  5.90092668e-04  7.12612727e-07  2.64811220e-12  1.20563282e-16  3.60248990e-03  3.65710598e-03  3.62637142e-03  3.62637783e-03  3.62637783e-03  3.62637783e-03  5.46160837e-05  2.38815275e-05  2.38879341e-05  2.38879341e-05  2.38879341e-05  3.07281496e-05  6.40661852e-09  1.72604986e-16  4.98732999e-17  -1.06531064e-03  -1.10362629e-03  -1.07296731e-03  -1.07296734e-03  -1.07296734e-03  -1.07296734e-03  3.83156502e-05  7.65666831e-06  7.65669883e-06  7.65669883e-06  7.65669883e-06  3.06589514e-05  3.05151408e-11  1.90819582e-17  4.33680869e-19
4.59641160e-02  -1.91057371e-08  1.53539040e-17  -6.16860626e-18  1.50973637e-18  3.43175734e-18  3.57966709e-18  1.91057372e-08  1.91057371e-08  1.91057371e-08  1.91057371e-08  1.91057371e-08  1.17742370e-17  9.74827335e-18  2.06993072e-18  1.47909752e-19  -9.19165391e-09  -1.72898372e-17  6.79313093e-18  -1.30747076e-18  -3.16432043e-18  -3.52052327e-18  9.19165389e-09  9.19165392e-09  9.19165391e-09  9.19165391e-09  9.19165390e-09  1.37693139e-17  1.03136542e-17  2.21305251e-18  3.56202837e-19  -2.34110092e-03  -2.93714245e-03  -2.34617880e-03  -2.34689161e-03  -2.34689160e-03  -2.34689160e-03  5.96041532e-04  5.07788026e-06  5.79068666e-06  5.79068401e-06  5.79068401e-06  5.90250848e-04  7.12803750e-07  2.64882170e-12  1.20563282e-16  3.60346219e-03  3.65808631e-03  3.62734351e-03  3.62734992e-03  3.62734992e-03  3.62734992e-03  5.46241143e-05  2.38813194e-05  2.38877277e-05  2.38877277e-05  2.38877277e-05  3.07363866e-05  6.40833588e-09  1.72604986e-16  4.98732999e-17  -1.06559825e-03  -1.10392213e-03  -1.07325493e-03  -1.07325496e-03  -1.07325496e-03  -1.07325496e-03  3.83238806e-05  7.65668023e-06  7.65671076e-06  7.65671076e-06  7.65671076e-06  3.06671699e-05  3.05233206e-11  1.90819582e-17  4.33680869e-19
4.65246540e-02  -1.93121974e-08  1.53580176e-17  -6.17025894e-18  1.51014086e-18  3.43267677e-18  3.58062615e-18  1.93121974e-08  1.93121974e-08  1.93121974e-08  1.93121974e-08  1.93121974e-08  1.17773915e-17  9.75088508e-18  2.07048529e-18  1.47949380e-19  -9.32445075e-09  -1.72944694e-17  6.79495092e-18  -1.30782105e-18  -3.16516821e-18  -3.52146648e-18  9.32445073e-09  9.32445075e-09  9.32445074e-09  9.32445074e-09  9.32445074e-09  1.37730030e-17  1.03164174e-17  2.21364543e-18  3.56298269e-19  -2.34173230e-03  -2.93792936e-03  -2.34680738e-03  -2.34752038e-03  -2.34752038e-03  -2.34752038e-03  5.96197063e-04  5.07508166e-06  5.78807903e-06  5.78807638e-06  5.78807638e-06  5.90408987e-04  7.12994722e-07  2.64953164e-12  1.20563282e-16  3.60443423e-03  3.65906637e-03  3.62831534e-03  3.62832175e-03  3.62832175e-03  3.62832175e-03  5.46321391e-05  2.38811077e-05  2.38875177e-05  2.38875177e-05  2.38875177e-05  3.07446214e-05  6.41005279e-09  1.72604986e-16  4.98732999e-17  -1.06588578e-03  -1.10421789e-03  -1.07354247e-03  -1.07354250e-03  -1.07354250e-03  -1.07354250e-03  3.83321064e-05  7.65668976e-06  7.65672030e-06  7.65672030e-06  7.65672030e-06  3.06753861e-05  3.05314986e-11  1.90819582e-17  4.33680869e-19
4.70851920e-02  -1.95177187e-08  1.53621301e-17  -6.17191117e-18  1.51054523e-18  3.43359595e-18  3.58158494e-18  1.95177187e-08  1.95177187e-08  1.95177187e-08  1.95177187e-08  1.95177187e-08  1.17805451e-17  9.75349611e-18  2.07103971e-18  1.47988997e-19  -9.45741069e-09  -1.72991004e-17  6.79677043e-18  -1.30817125e-18  -3.16601576e-18  -3.52240943e-18  9.45741068e-09  9.45741070e-09  9.45741069e-09  9.45741069e-09  9.45741069e-09  1.37766910e-17  1.03191799e-17  2.21423818e-18  3.56393676e-19  -2.34236352e-03  -2.93871606e-03  -2.34743579e-03  -2.34814898e-03  -2.34814898e-03  -2.34814898e-03  5.96352538e-04  5.07227016e-06  5.78545846e-06  5.78545581e-06  5.78545581e-06  5.90567082e-04  7.13185643e-07  2.65024114e-12  1.20563282e-16  3.60540601e-03  3.66004617e-03  3.62928690e-03  3.62929331e-03  3.62929331e-03  3.62929331e-03  5.46401580e-05  2.38808922e-05  2.38873040e-05  2.38873040e-05  2.38873040e-05  3.07528540e-05  6.41176923e-09  1.72604986e-16  4.98732999e-17  -1.06617324e-03  -1.10451357e-03  -1.07382994e-03  -1.07382997e-03  -1.07382997e-03  -1.07382997e-03  3.83403276e-05  7.65669691e-06  7.65672745e-06  7.65672745e-06  7.65672745e-06  3.06836002e-05  3.05396741e-11  1.90819582e-17  4.33680869e-19
4.76457300e-02  -1.97222906e-08  1.53662415e-17  -6.17356296e-18  1.51094950e-18  3.43451488e-18  3.58254348e-18  1.97222906e-08  1.97222906e-08  1.97222906e-08  1.97222906e-08  1.97222906e-08  1.17836980e-17  9.75610644e-18  2.07159398e-18  1.48028603e-19  -9.59052168e-09  -1.73037302e-17  6.79858945e-18  -1.30852136e-18  -3.16686308e-18  -3.52335214e-18  9.59052167e-09  9.59052169e-09  9.59052168e-09  9.59052168e-09  9.59052168e-09  1.37803781e-17  1.03219416e-17  2.21483078e-18  3.56489058e-19  -2.34299459e-03  -2.93950255e-03  -2.34806404e-03  -2.34877742e-03  -2.34877742e-03  -2.34877742e-03  5.96507958e-04  5.06944581e-06  5.78282497e-06  5.78282232e-06  5.78282232e-06  5.90725136e-04  7.13376513e-07  2.65095021e-12  1.20996962e-16  3.60637754e-03  3.66102571e-03  3.63025821e-03  3.63026462e-03  3.63026462e-03  3.63026462e-03  5.46481710e-05  2.38806732e-05  2.38870866e-05  2.38870866e-05  2.38870866e-05  3.07610843e-05  6.41348521e-09  1.73038667e-16  4.98732999e-17  -1.06646062e-03  -1.10480917e-03  -1.07411732e-03  -1.07411735e-03  -1.07411735e-03  -1.07411735e-03  3.83485443e-05  7.65670169e-06  7.65673224e-06  7.65673224e-06  7.65673224e-06  3.06918120e-05  3.05478475e-11  1.90819582e-17  4.33680869e-19
4.82062680e-02  -1.99259021e-08  1.53703517e-17  -6.17521430e-18  1.51135366e-18  3.43543357e-18  3.58350177e-18  1.99259021e-08  1.99259021e-08  1.99259021e-08  1.99259021e-08  1.99259021e-08  1.17868500e-17  9.75871607e-18  2.07214811e-18  1.48068199e-19  -9.72377280e-09  -1.73083587e-17  6.80040798e-18  -1.30887137e-18  -3.16771017e-18  -3.52429459e-18  9.72377278e-09  9.72377281e-09  9.72377280e-09  9.72377280e-09  9.72377280e-09  1.37840641e-17  1.03247026e-17  2.21542322e-18  3.56584414e-19  -2.34362551e-03  -2.94028883e-03  -2.34869212e-03  -2.34940569e-03  -2.34940568e-03  -2.34940568e-03  5.96663323e-04  5.06660865e-06  5.78017863e-06  5.78017598e-06  5.78017598e-06  5.90883147e-04  7.13567332e-07  2.65165927e-12  1.20996962e-16  3.60734881e-03  3.66200498e-03  3.63122926e-03  3.63123567e-03  3.63123567e-03  3.63123567e-03  5.46561781e-05  2.38804504e-05  2.38868656e-05  2.38868656e-05  2.38868656e-05  3.07693125e-05  6.41520073e-09  1.72604986e-16  4.98732999e-17  -1.06674793e-03  -1.10510469e-03  -1.07440464e-03  -1.07440467e-03  -1.07440467e-03  -1.07440467e-03  3.83567563e-05  7.65670410e-06  7.65673466e-06  7.65673466e-06  7.65673466e-06  3.07000217e-05  3.05560184e-11  1.92987987e-17  6.50521303e-19
4.87668060e-02  -2.01285426e-08  1.53744609e-17  -6.17686521e-18  1.51175771e-18  3.43635201e-18  3.58445979e-18  2.01285426e-08  2.01285426e-08  2.01285426e-08  2.01285426e-08  2.01285426e-08  1.17900011e-17  9.76132500e-18  2.07270208e-18  1.48107784e-19  -9.85715184e-09  -1.73129860e-17  6.80222603e-18  -1.30922129e-18  -3.16855704e-18  -3.52523679e-18  9.85715182e-09  9.85715185e-09  9.85715184e-09  9.85715184e-09  9.85715184e-09  1.37877492e-17  1.03274628e-17  2.21601550e-18  3.56679745e-19  -2.34425626e-03  -2.94107490e-03  -2.34932002e-03  -2.35003378e-03  -2.35003378e-03  -2.35003378e-03  5.96818633e-04  5.06375872e-06  5.77751947e-06  5.77751682e-06  5.77751682e-06  5.91041116e-04  7.13758100e-07  2.65236834e-12  1.20563282e-16  3.60831982e-03  3.66298400e-03  3.63220004e-03  3.63220646e-03  3.63220646e-03  3.63220646e-03  5.46641793e-05  2.38802239e-05  2.38866408e-05  2.38866408e-05  2.38866408e-05  3.07775385e-05  6.41691580e-09  1.72604986e-16  4.94396191e-17  -1.06703517e-03  -1.10540013e-03  -1.07469187e-03  -1.07469190e-03  -1.07469190e-03  -1.07469190e-03  3.83649639e-05  7.65670417e-06  7.65673473e-06  7.65673473e-06  7.65673473e-06  3.07082291e-05  3.05641872e-11  1.90819582e-17  4.33680869e-19
4.93273440e-02  -2.03302016e-08  1.53785690e-17  -6.17851567e-18  1.51216165e-18  3.43727021e-18  3.58541756e-18  2.03302017e-08  2.03302016e-08  2.03302016e-08  2.03302016e-08  2.03302016e-08  1.17931514e-17  9.76393324e-18  2.07325591e-18  1.48147358e-19  -9.99064720e-09  -1.73176121e-17  6.80404359e-18  -1.30957111e-18  -3.16940368e-18  -3.52617873e-18  9.99064718e-09  9.99064721e-09  9.99064720e-09  9.99064720e-09  9.99064720e-09  1.37914333e-17  1.03302223e-17  2.21660762e-18  3.56775050e-19  -2.34488687e-03  -2.94186076e-03  -2.34994776e-03  -2.35066172e-03  -2.35066171e-03  -2.35066171e-03  5.96973888e-04  5.06089607e-06  5.77484754e-06  5.77484489e-06  5.77484489e-06  5.91199043e-04  7.13948817e-07  2.65307698e-12  1.20563282e-16  3.60929058e-03  3.66396275e-03  3.63317057e-03  3.63317699e-03  3.63317699e-03  3.63317699e-03  5.46721747e-05  2.38799937e-05  2.38864123e-05  2.38864123e-05  2.38864123e-05  3.07857623e-05  6.41863040e-09  1.72604986e-16  4.94396191e-17  -1.06732233e-03  -1.10569550e-03  -1.07497903e-03  -1.07497906e-03  -1.07497906e-03  -1.07497906e-03  3.83731669e-05  7.65670189e-06  7.65673246e-06  7.65673246e-06  7.65673246e-06  3.07164344e-05  3.05723543e-11  1.90819582e-17  4.33680869e-19
4.98878820e-02  -2.05308681e-08  1.53826759e-17  -6.18016570e-18  1.51256549e-18  3.43818816e-18  3.58637508e-18  2.05308682e-08  2.05308681e-08  2.05308681e-08  2.05308682e-08  2.05308682e-08  1.17963009e-17  9.76654078e-18  2.07380959e-18  1.48186922e-19  -1.01242477e-08  -1.73222369e-17  6.80586067e-18  -1.30992085e-18  -3.17025010e-18  -3.52712043e-18  1.01242476e-08  1.01242477e-08  1.01242477e-08  1.01242477e-08  1.01242477e-08  1.37951164e-17  1.03329811e-17  2.21719958e-18  3.56870330e-19  -2.34551732e-03  -2.94264640e-03  -2.35057534e-03  -2.35128948e-03  -2.35128948e-03  -2.35128948e-03  5.97129088e-04  5.05802075e-06  5.77216289e-06  5.77216023e-06  5.77216023e-06  5.91356928e-04  7.14139483e-07  2.65378561e-12  1.20996962e-16  3.61026108e-03  3.66494124e-03  3.63414084e-03  3.63414726e-03  3.63414726e-03  3.63414726e-03  5.46801640e-05  2.38797598e-05  2.38861801e-05  2.38861801e-05  2.38861801e-05  3.07939839e-05  6.42034455e-09  1.72604986e-16  4.94396191e-17  -1.06760942e-03  -1.10599078e-03  -1.07526611e-03  -1.07526614e-03  -1.07526614e-03  -1.07526614e-03  3.83813654e-05  7.65669728e-06  7.65672786e-06  7.65672786e-06  7.65672786e-06  3.07246375e-05  3.05805188e-11  1.92987987e-17  4.33680869e-19
5.04484200e-02  -2.07305316e-08  1.53867818e-17  -6.18181528e-18  1.51296922e-18  3.43910586e-18  3.58733234e-18  2.07305316e-08  2.07305316e-08  2.07305316e-08  2.07305316e-08  2.07305316e-08  1.17994495e-17  9.76914762e-18  2.07436312e-18  1.48226476e-19  -1.02579411e-08  -1.73268604e-17  6.80767726e-18  -1.31027048e-18  -3.17109629e-18  -3.52806187e-18  1.02579410e-08  1.02579411e-08  1.02579411e-08  1.02579411e-08  1.02579411e-08  1.37987986e-17  1.03357391e-17  2.21779139e-18  3.56965584e-19  -2.34614761e-03  -2.94343184e-03  -2.35120274e-03  -2.35191708e-03  -2.35191707e-03  -2.35191707e-03  5.97284233e-04  5.05513280e-06  5.76946555e-06  5.76946289e-06  5.76946290e-06  5.91514770e-04  7.14330098e-07  2.65449381e-12  1.20996962e-16  3.61123133e-03  3.66591947e-03  3.63511085e-03  3.63511727e-03  3.63511727e-03  3.63511727e-03  5.46881475e-05  2.38795221e-05  2.38859442e-05  2.38859442e-05  2.38859442e-05  3.08022033e-05  6.42205824e-09  1.73038667e-16  4.98732999e-17  -1.06789643e-03  -1.10628599e-03  -1.07555312e-03  -1.07555315e-03  -1.07555315e-03  -1.07555315e-03  3.83895593e-05  7.65669034e-06  7.65672093e-06  7.65672093e-06  7.65672093e-06  3.07328384e-05  3.05886811e-11  1.92987987e-17  4.33680869e-19
5.10089580e-02  -2.09291810e-08  1.53908866e-17  -6.18346442e-18  1.51337284e-18  3.44002333e-18  3.58828934e-18  2.09291810e-08  2.09291809e-08  2.09291810e-08  2.09291810e-08  2.09291810e-08  1.18025973e-17  9.77175377e-18  2.07491651e-18  1.48266019e-19  -1.03917165e-08  -1.73314828e-17  6.80949337e-18  -1.31062003e-18  -3.17194225e-18  -3.52900306e-18  1.03917164e-08  1.03917165e-08  1.03917164e-08  1.03917164e-08  1.03917164e-08  1.38024797e-17  1.03384964e-17  2.21838303e-18  3.57060813e-19  -2.34677775e-03  -2.94421707e-03  -2.35182998e-03  -2.35254450e-03  -2.35254450e-03  -2.35254450e-03  5.97439323e-04  5.05223226e-06  5.76675557e-06  5.76675292e-06  5.76675292e-06  5.91672570e-04  7.14520662e-07  2.65520201e-12  1.20996962e-16  3.61220132e-03  3.66689744e-03  3.63608060e-03  3.63608702e-03  3.63608702e-03  3.63608702e-03  5.46961249e-05  2.38792806e-05  2.38857044e-05  2.38857044e-05  2.38857044e-05  3.08104205e-05  6.42377148e-09  1.73038667e-16  4.98732999e-17  -1.06818337e-03  -1.10658112e-03  -1.07584005e-03  -1.07584008e-03  -1.07584008e-03  -1.07584008e-03  3.83977488e-05  7.65668110e-06  7.65671170e-06  7.65671170e-06  7.65671170e-06  3.07410371e-05  3.05968415e-11  1.90819582e-17  4.33680869e-19
5.15694960e-02  -2.11268060e-08  1.53949903e-17  -6.18511313e-18  1.51377635e-18  3.44094054e-18  3.58924609e-18  2.11268060e-08  2.11268060e-08  2.11268060e-08  2.11268060e-08  2.11268060e-08  1.18057442e-17  9.77435922e-18  2.07546975e-18  1.48305551e-19  -1.05255615e-08  -1.73361039e-17  6.81130899e-18  -1.31096948e-18  -3.17278799e-18  -3.52994401e-18  1.05255615e-08  1.05255615e-08  1.05255615e-08  1.05255615e-08  1.05255615e-08  1.38061599e-17  1.03412530e-17  2.21897452e-18  3.57156017e-19  -2.34740773e-03  -2.94500209e-03  -2.35245705e-03  -2.35317177e-03  -2.35317176e-03  -2.35317176e-03  5.97594359e-04  5.04931917e-06  5.76403300e-06  5.76403035e-06  5.76403035e-06  5.91830329e-04  7.14711176e-07  2.65591021e-12  1.20996962e-16  3.61317106e-03  3.66787515e-03  3.63705009e-03  3.63705652e-03  3.63705652e-03  3.63705652e-03  5.47040964e-05  2.38790354e-05  2.38854609e-05  2.38854609e-05  2.38854609e-05  3.08186355e-05  6.42548425e-09  1.73038667e-16  4.98732999e-17  -1.06847023e-03  -1.10687616e-03  -1.07612690e-03  -1.07612693e-03  -1.07612693e-03  -1.07612693e-03  3.84059338e-05  7.65666956e-06  7.65670016e-06  7.65670016e-06  7.65670016e-06  3.07492336e-05  3.06049994e-11  1.92987987e-17  4.33680869e-19
5.21300340e-02  -2.13233956e-08  1.53990929e-17  -6.18676139e-18  1.51417975e-18  3.44185752e-18  3.59020259e-18  2.13233956e-08  2.13233956e-08  2.13233956e-08  2.13233956e-08  2.13233956e-08  1.18088903e-17  9.77696398e-18  2.07602284e-18  1.48345073e-19  -1.06594654e-08  -1.73407238e-17  6.81312413e-18  -1.31131884e-18  -3.17363350e-18  -3.53088470e-18  1.06594654e-08  1.06594654e-08  1.06594654e-08  1.06594654e-08  1.06594654e-08  1.38098391e-17  1.03440088e-17  2.21956586e-18  3.57251195e-19  -2.34803756e-03  -2.94578690e-03  -2.35308396e-03  -2.35379886e-03  -2.35379886e-03  -2.35379886e-03  5.97749340e-04  5.04639359e-06  5.76129789e-06  5.76129523e-06  5.76129523e-06  5.91988045e-04  7.14901638e-07  2.65661798e-12  1.20996962e-16  3.61414054e-03  3.66885260e-03  3.63801932e-03  3.63802575e-03  3.63802575e-03  3.63802575e-03  5.47120619e-05  2.38787864e-05  2.38852136e-05  2.38852136e-05  2.38852136e-05  3.08268483e-05  6.42719658e-09  1.73038667e-16  4.98732999e-17  -1.06875702e-03  -1.10717113e-03  -1.07641368e-03  -1.07641371e-03  -1.07641371e-03  -1.07641371e-03  3.84141143e-05  7.65665572e-06  7.65668633e-06  7.65668633e-06  7.65668633e-06  3.07574279e-05  3.06131555e-11  1.90819582e-17  4.33680869e-19
5.26905720e-02  -2.15189394e-08  1.54031944e-17  -6.18840922e-18  1.51458305e-18  3.44277424e-18  3.59115883e-18  2.15189394e-08  2.15189394e-08  2.15189394e-08  2.15189394e-08  2.15189394e-08  1.18120356e-17  9.77956805e-18  2.07657578e-18  1.48384584e-19  -1.07934161e-08  -1.73453424e-17  6.81493878e-18  -1.31166811e-18  -3.17447879e-18  -3.53182514e-18  1.07934161e-08  1.07934161e-08  1.07934161e-08  1.07934161e-08  1.07934161e-08  1.38135173e-17  1.03467639e-17  2.22015703e-18  3.57346348e-19  -2.34866724e-03  -2.94657150e-03  -2.35371069e-03  -2.35442579e-03  -2.35442578e-03  -2.35442578e-03  5.97904267e-04  5.04345555e-06  5.75855026e-06  5.75854760e-06  5.75854760e-06  5.92145719e-04  7.15092050e-07  2.65732531e-12  1.20996962e-16  3.61510977e-03  3.66982979e-03  3.63898830e-03  3.63899473e-03  3.63899473e-03  3.63899473e-03  5.47200215e-05  2.38785336e-05  2.38849625e-05  2.38849625e-05  2.38849625e-05  3.08350590e-05  6.42890844e-09  1.73472348e-16  4.98732999e-17  -1.06904374e-03  -1.10746603e-03  -1.07670038e-03  -1.07670041e-03  -1.07670041e-03  -1.07670041e-03  3.84222903e-05  7.65663960e-06  7.65667022e-06  7.65667022e-06  7.65667022e-06  3.07656201e-05  3.06213093e-11  1.90819582e-17  4.33680869e-19
5.32511100e-02  -2.17134264e-08  1.54072948e-17  -6.19005661e-18  1.51498624e-18  3.44369073e-18  3.59211481e-18  2.17134264e-08  2.17134264e-08  2.17134264e-08  2.17134264e-08  2.17134264e-08  1.18151800e-17  9.78217142e-18  2.07712857e-18  1.48424085e-19  -1.09274023e-08  -1.73499599e-17  6.81675295e-18  -1.31201728e-18  -3.17532385e-18  -3.53276533e-18  1.09274022e-08  1.09274023e-08  1.09274022e-08  1.09274022e-08  1.09274022e-08  1.38171945e-17  1.03495183e-17  2.22074805e-18  3.57441475e-19  -2.34929676e-03  -2.94735590e-03  -2.35433726e-03  -2.35505255e-03  -2.35505255e-03  -2.35505255e-03  5.98059139e-04  5.04050511e-06  5.75579018e-06  5.75578752e-06  5.75578752e-06  5.92303351e-04  7.15282411e-07  2.65803265e-12  1.20996962e-16  3.61607874e-03  3.67080672e-03  3.63995702e-03  3.63996345e-03  3.63996345e-03  3.63996345e-03  5.47279750e-05  2.38782769e-05  2.38847075e-05  2.38847075e-05  2.38847075e-05  3.08432674e-05  6.43061985e-09  1.73472348e-16  4.98732999e-17  -1.06933038e-03  -1.10776084e-03  -1.07698700e-03  -1.07698703e-03  -1.07698703e-03  -1.07698703e-03  3.84304619e-05  7.65662121e-06  7.65665184e-06  7.65665184e-06  7.65665184e-06  3.07738100e-05  3.06294606e-11  1.92987987e-17  4.33680869e-19
5.38116480e-02  -2.19068460e-08  1.54113941e-17  -6.19170355e-18  1.51538932e-18  3.44460697e-18  3.59307054e-18  2.19068460e-08  2.19068460e-08  2.19068460e-08  2.19068460e-08  2.19068460e-08  1.18183236e-17  9.78477410e-18  2.07768122e-18  1.48463575e-19  -1.10614124e-08  -1.73545760e-17  6.81856664e-18  -1.31236636e-18  -3.17616869e-18  -3.53370527e-18  1.10614124e-08  1.10614125e-08  1.10614124e-08  1.10614124e-08  1.10614124e-08  1.38208708e-17  1.03522719e-17  2.22133891e-18  3.57536577e-19  -2.34992612e-03  -2.94814008e-03  -2.35496367e-03  -2.35567914e-03  -2.35567914e-03  -2.35567914e-03  5.98213957e-04  5.03754230e-06  5.75301768e-06  5.75301502e-06  5.75301502e-06  5.92460942e-04  7.15472722e-07  2.65873998e-12  1.20996962e-16  3.61704746e-03  3.67178338e-03  3.64092548e-03  3.64093191e-03  3.64093191e-03  3.64093191e-03  5.47359225e-05  2.38780164e-05  2.38844487e-05  2.38844487e-05  2.38844487e-05  3.08514737e-05  6.43233080e-09  1.73038667e-16  4.98732999e-17  -1.06961694e-03  -1.10805557e-03  -1.07727355e-03  -1.07727358e-03  -1.07727358e-03  -1.07727358e-03  3.84386290e-05  7.65660057e-06  7.65663120e-06  7.65663120e-06  7.65663120e-06  3.07819978e-05  3.06376101e-11  1.90819582e-17  4.33680869e-19
