# time  numeric_E1  refQ6_E1  refQ12_E1  refQ24_E1  refQ48_E1  refQ96_E1  errQ6_E1  errQ12_E1  errQ24_E1  errQ48_E1  errQ96_E1  deltaQuadratureQ6_Q96_E1  deltaQuadratureQ12_Q96_E1  deltaQuadratureQ24_Q96_E1  deltaQuadratureQ48_Q96_E1  numeric_E2  refQ6_E2  refQ12_E2  refQ24_E2  refQ48_E2  refQ96_E2  errQ6_E2  errQ12_E2  errQ24_E2  errQ48_E2  errQ96_E2  deltaQuadratureQ6_Q96_E2  deltaQuadratureQ12_Q96_E2  deltaQuadratureQ24_Q96_E2  deltaQuadratureQ48_Q96_E2  numeric_E3  refQ6_E3  refQ12_E3  refQ24_E3  refQ48_E3  refQ96_E3  errQ6_E3  errQ12_E3  errQ24_E3  errQ48_E3  errQ96_E3  deltaQuadratureQ6_Q96_E3  deltaQuadratureQ12_Q96_E3  deltaQuadratureQ24_Q96_E3  deltaQuadratureQ48_Q96_E3  numeric_E4  refQ6_E4  refQ12_E4  refQ24_E4  refQ48_E4  refQ96_E4  errQ6_E4  errQ12_E4  errQ24_E4  errQ48_E4  errQ96_E4  deltaQuadratureQ6_Q96_E4  deltaQuadratureQ12_Q96_E4  deltaQuadratureQ24_Q96_E4  deltaQuadratureQ48_Q96_E4  numeric_E5  refQ6_E5  refQ12_E5  refQ24_E5  refQ48_E5  refQ96_E5  errQ6_E5  errQ12_E5  errQ24_E5  errQ48_E5  errQ96_E5  deltaQuadratureQ6_Q96_E5  deltaQuadratureQ12_Q96_E5  deltaQuadratureQ24_Q96_E5  deltaQuadratureQ48_Q96_E5
2.24215000e-03  -4.75437312e-09  1.50295771e-17  -6.03830422e-18  1.47784558e-18  3.35926690e-18  3.50405229e-18  4.75437314e-09  4.75437311e-09  4.75437312e-09  4.75437312e-09  4.75437312e-09  1.15255248e-17  9.54235650e-18  2.02620671e-18  1.44785393e-19  -2.12870397e-09  -1.69246167e-17  6.64963678e-18  -1.27985251e-18  -3.09747917e-18  -3.44615779e-18  2.12870395e-09  2.12870397e-09  2.12870397e-09  2.12870396e-09  2.12870396e-09  1.34784590e-17  1.00957946e-17  2.16630528e-18  3.48678615e-19  -2.27293645e-03  -2.87509997e-03  -2.29661949e-03  -2.29731724e-03  -2.29731723e-03  -2.29731723e-03  6.02163514e-04  2.36830334e-05  2.43807829e-05  2.43807803e-05  2.43807803e-05  5.77782733e-04  6.97746899e-07  2.59286950e-12  1.18394877e-16  3.45581107e-03  3.58081502e-03  3.55072162e-03  3.55072789e-03  3.55072789e-03  3.55072789e-03  1.25003951e-04  9.49105495e-05  9.49168225e-05  9.49168225e-05  9.49168225e-05  3.00871290e-05  6.27296993e-09  1.68701858e-16  4.85722573e-17  -1.02023099e-03  -1.08060352e-03  -1.05058411e-03  -1.05058414e-03  -1.05058414e-03  -1.05058414e-03  6.03725264e-05  3.03531221e-05  3.03531520e-05  3.03531520e-05  3.03531520e-05  3.00193744e-05  2.98785638e-11  1.86482774e-17  4.33680869e-19
4.48430000e-03  -9.49008644e-09  1.50463793e-17  -6.04505469e-18  1.47949773e-18  3.36302236e-18  3.50796962e-18  9.49008646e-09  9.49008644e-09  9.49008644e-09  9.49008645e-09  9.49008645e-09  1.15384097e-17  9.55302431e-18  2.02847189e-18  1.44947255e-19  -4.28614527e-09  -1.69435375e-17  6.65707069e-18  -1.28128331e-18  -3.10094197e-18  -3.45001039e-18  4.28614525e-09  4.28614527e-09  4.28614526e-09  4.28614526e-09  4.28614526e-09  1.34935271e-17  1.01070811e-17  2.16872708e-18  3.49068418e-19  -2.27552862e-03  -2.87831416e-03  -2.29918697e-03  -2.29988550e-03  -2.29988550e-03  -2.29988550e-03  6.02785542e-04  2.36583542e-05  2.43568838e-05  2.43568812e-05  2.43568812e-05  5.78428661e-04  6.98526939e-07  2.59576865e-12  1.17961196e-16  3.45977623e-03  3.58481816e-03  3.55469112e-03  3.55469740e-03  3.55469740e-03  3.55469740e-03  1.25041931e-04  9.49148861e-05  9.49211661e-05  9.49211661e-05  9.49211661e-05  3.01207647e-05  6.27998275e-09  1.69135539e-16  4.90059382e-17  -1.02140167e-03  -1.08181157e-03  -1.05175861e-03  -1.05175864e-03  -1.05175864e-03  -1.05175864e-03  6.04098966e-05  3.03569323e-05  3.03569622e-05  3.03569622e-05  3.03569622e-05  3.00529343e-05  2.99119664e-11  1.86482774e-17  4.33680869e-19
6.72645000e-03  -1.41983339e-08  1.50631628e-17  -6.05179763e-18  1.48114803e-18  3.36677364e-18  3.51188257e-18  1.41983339e-08  1.41983339e-08  1.41983339e-08  1.41983339e-08  1.41983339e-08  1.15512802e-17  9.56368021e-18  2.03073455e-18  1.45108936e-19  -6.47971497e-09  -1.69624371e-17  6.66449631e-18  -1.28271251e-18  -3.10440091e-18  -3.45385870e-18  6.47971496e-09  6.47971498e-09  6.47971497e-09  6.47971497e-09  6.47971497e-09  1.35085784e-17  1.01183550e-17  2.17114619e-18  3.49457785e-19  -2.27811908e-03  -2.88152477e-03  -2.30175160e-03  -2.30245091e-03  -2.30245090e-03  -2.30245090e-03  6.03405689e-04  2.36325149e-05  2.43318236e-05  2.43318210e-05  2.43318210e-05  5.79073868e-04  6.99306110e-07  2.59866391e-12  1.18394877e-16  3.46373764e-03  3.58881684e-03  3.55865619e-03  3.55866248e-03  3.55866248e-03  3.55866248e-03  1.25079206e-04  9.49185558e-05  9.49248428e-05  9.49248428e-05  9.49248428e-05  3.01543629e-05  6.28698774e-09  1.69135539e-16  4.85722573e-17  -1.02257135e-03  -1.08301827e-03  -1.05293179e-03  -1.05293182e-03  -1.05293182e-03  -1.05293182e-03  6.04469243e-05  3.03604375e-05  3.03604675e-05  3.03604675e-05  3.03604675e-05  3.00864568e-05  2.99453316e-11  1.88651178e-17  4.33680869e-19
8.96860000e-03  -1.88741363e-08  1.50799275e-17  -6.05853307e-18  1.48279649e-18  3.37052074e-18  3.51579118e-18  1.88741363e-08  1.88741363e-08  1.88741363e-08  1.88741363e-08  1.88741363e-08  1.15641364e-17  9.57432425e-18  2.03299468e-18  1.45270437e-19  -8.70986256e-09  -1.69813157e-17  6.67191366e-18  -1.28414013e-18  -3.10785600e-18  -3.45770272e-18  8.70986254e-09  8.70986257e-09  8.70986256e-09  8.70986256e-09  8.70986256e-09  1.35236130e-17  1.01296164e-17  2.17356260e-18  3.49846720e-19  -2.28070770e-03  -2.88473181e-03  -2.30431337e-03  -2.30501345e-03  -2.30501345e-03  -2.30501345e-03  6.04024107e-04  2.36056652e-05  2.43057522e-05  2.43057496e-05  2.43057496e-05  5.79718357e-04  7.00084413e-07  2.60155612e-12  1.18394877e-16  3.46769498e-03  3.59281107e-03  3.56261685e-03  3.56262315e-03  3.56262315e-03  3.56262315e-03  1.25116087e-04  9.49218698e-05  9.49281638e-05  9.49281638e-05  9.49281638e-05  3.01879236e-05  6.29398494e-09  1.69569220e-16  4.90059382e-17  -1.02373994e-03  -1.08422364e-03  -1.05410366e-03  -1.05410369e-03  -1.05410369e-03  -1.05410369e-03  6.04836958e-05  3.03637239e-05  3.03637538e-05  3.03637538e-05  3.03637538e-05  3.01199420e-05  2.99786597e-11  1.88651178e-17  4.33680869e-19
1.12107500e-02  -2.35139707e-08  1.50966737e-17  -6.06526103e-18  1.48444313e-18  3.37426368e-18  3.51969544e-18  2.35139708e-08  2.35139707e-08  2.35139707e-08  2.35139708e-08  2.35139708e-08  1.15769783e-17  9.58495648e-18  2.03525231e-18  1.45431759e-19  -1.09747850e-08  -1.70001734e-17  6.67932278e-18  -1.28556616e-18  -3.11130726e-18  -3.46154248e-18  1.09747850e-08  1.09747850e-08  1.09747850e-08  1.09747850e-08  1.09747850e-08  1.35386309e-17  1.01408653e-17  2.17597632e-18  3.50235222e-19  -2.28329443e-03  -2.88793528e-03  -2.30687229e-03  -2.30757316e-03  -2.30757315e-03  -2.30757315e-03  6.04640854e-04  2.35778621e-05  2.42787266e-05  2.42787240e-05  2.42787240e-05  5.80362130e-04  7.00861852e-07  2.60444487e-12  1.18394877e-16  3.47164819e-03  3.59680086e-03  3.56657312e-03  3.56657942e-03  3.56657942e-03  3.56657942e-03  1.25152677e-04  9.49249292e-05  9.49312302e-05  9.49312302e-05  9.49312302e-05  3.02214471e-05  6.30097437e-09  1.70002901e-16  4.90059382e-17  -1.02490742e-03  -1.08542766e-03  -1.05527424e-03  -1.05527427e-03  -1.05527427e-03  -1.05527427e-03  6.05202416e-05  3.03668216e-05  3.03668516e-05  3.03668516e-05  3.03668516e-05  3.01533900e-05  3.00119508e-11  1.88651178e-17  4.33680869e-19
1.34529000e-02  -2.81148621e-08  1.51134013e-17  -6.07198154e-18  1.48608794e-18  3.37800247e-18  3.52359538e-18  2.81148621e-08  2.81148620e-08  2.81148621e-08  2.81148621e-08  2.81148621e-08  1.15898059e-17  9.59557692e-18  2.03750744e-18  1.45592902e-19  -1.32719541e-08  -1.70190101e-17  6.68672368e-18  -1.28699061e-18  -3.11475469e-18  -3.46537798e-18  1.32719540e-08  1.32719541e-08  1.32719541e-08  1.32719541e-08  1.32719541e-08  1.35536321e-17  1.01521017e-17  2.17838738e-18  3.50623294e-19  -2.28587925e-03  -2.89113521e-03  -2.30942838e-03  -2.31013002e-03  -2.31013002e-03  -2.31013002e-03  6.05255961e-04  2.35491320e-05  2.42507731e-05  2.42507704e-05  2.42507704e-05  5.81005190e-04  7.01638430e-07  2.60733102e-12  1.18828558e-16  3.47559723e-03  3.60078624e-03  3.57052499e-03  3.57053130e-03  3.57053130e-03  3.57053130e-03  1.25189007e-04  9.49277652e-05  9.49340732e-05  9.49340732e-05  9.49340732e-05  3.02549334e-05  6.30795605e-09  1.69569220e-16  4.85722573e-17  -1.02607378e-03  -1.08663035e-03  -1.05644352e-03  -1.05644355e-03  -1.05644355e-03  -1.05644355e-03  6.05565735e-05  3.03697426e-05  3.03697726e-05  3.03697726e-05  3.03697726e-05  3.01868009e-05  3.00452050e-11  1.88651178e-17  4.33680869e-19
1.56950500e-02  -3.26740416e-08  1.51301104e-17  -6.07869462e-18  1.48773093e-18  3.38173713e-18  3.52749100e-18  3.26740416e-08  3.26740416e-08  3.26740416e-08  3.26740416e-08  3.26740416e-08  1.16026194e-17  9.60618562e-18  2.03976007e-18  1.45753867e-19  -1.55986138e-08  -1.70378260e-17  6.69411641e-18  -1.28841348e-18  -3.11819830e-18  -3.46920924e-18  1.55986138e-08  1.55986138e-08  1.55986138e-08  1.55986138e-08  1.55986138e-08  1.35686168e-17  1.01633256e-17  2.18079576e-18  3.51010937e-19  -2.28846215e-03  -2.89433160e-03  -2.31198164e-03  -2.31268406e-03  -2.31268406e-03  -2.31268406e-03  6.05869445e-04  2.35194911e-05  2.42219079e-05  2.42219053e-05  2.42219053e-05  5.81647539e-04  7.02414149e-07  2.61021326e-12  1.18828558e-16  3.47954212e-03  3.60476720e-03  3.57447250e-03  3.57447882e-03  3.57447882e-03  3.57447882e-03  1.25225083e-04  9.49303856e-05  9.49367006e-05  9.49367006e-05  9.49367006e-05  3.02883828e-05  6.31493002e-09  1.70002901e-16  4.90059382e-17  -1.02723901e-03  -1.08783171e-03  -1.05761150e-03  -1.05761153e-03  -1.05761153e-03  -1.05761153e-03  6.05926973e-05  3.03724923e-05  3.03725223e-05  3.03725223e-05  3.03725223e-05  3.02201749e-05  3.00784224e-11  1.88651178e-17  4.33680869e-19
1.79372000e-02  -3.71888211e-08  1.51468011e-17  -6.08540029e-18  1.48937211e-18  3.38546767e-18  3.53138233e-18  3.71888211e-08  3.71888211e-08  3.71888211e-08  3.71888211e-08  3.71888211e-08  1.16154188e-17  9.61678261e-18  2.04201021e-18  1.45914654e-19  -1.79519429e-08  -1.70566212e-17  6.70150098e-18  -1.28983478e-18  -3.12163812e-18  -3.47303628e-18  1.79519428e-08  1.79519429e-08  1.79519429e-08  1.79519429e-08  1.79519429e-08  1.35835849e-17  1.01745373e-17  2.18320149e-18  3.51398152e-19  -2.29104314e-03  -2.89752446e-03  -2.31453209e-03  -2.31523528e-03  -2.31523528e-03  -2.31523528e-03  6.06481321e-04  2.34889524e-05  2.41921440e-05  2.41921414e-05  2.41921414e-05  5.82289180e-04  7.03189012e-07  2.61309290e-12  1.19262239e-16  3.48348287e-03  3.60874377e-03  3.57841566e-03  3.57842198e-03  3.57842198e-03  3.57842198e-03  1.25260908e-04  9.49327906e-05  9.49391125e-05  9.49391125e-05  9.49391125e-05  3.03217952e-05  6.32189629e-09  1.70436582e-16  4.90059382e-17  -1.02840313e-03  -1.08903174e-03  -1.05877820e-03  -1.05877823e-03  -1.05877823e-03  -1.05877823e-03  6.06286165e-05  3.03750743e-05  3.03751044e-05  3.03751044e-05  3.03751044e-05  3.02535121e-05  3.01116033e-11  1.88651178e-17  4.33680869e-19
2.01793500e-02  -4.16565463e-08  1.51634734e-17  -6.09209858e-18  1.49101149e-18  3.38919411e-18  3.53526937e-18  4.16565463e-08  4.16565463e-08  4.16565463e-08  4.16565463e-08  4.16565463e-08  1.16282040e-17  9.62736795e-18  2.04425789e-18  1.46075265e-19  -2.03291076e-08  -1.70753957e-17  6.70887742e-18  -1.29125452e-18  -3.12507416e-18  -3.47685910e-18  2.03291076e-08  2.03291076e-08  2.03291076e-08  2.03291076e-08  2.03291076e-08  1.35985366e-17  1.01857365e-17  2.18560457e-18  3.51784941e-19  -2.29362220e-03  -2.90071381e-03  -2.31707973e-03  -2.31778370e-03  -2.31778369e-03  -2.31778369e-03  6.07091605e-04  2.34575275e-05  2.41614931e-05  2.41614905e-05  2.41614905e-05  5.82930114e-04  7.03963023e-07  2.61596907e-12  1.19262239e-16  3.48741949e-03  3.61271597e-03  3.58235447e-03  3.58236080e-03  3.58236080e-03  3.58236080e-03  1.25296477e-04  9.49349777e-05  9.49413065e-05  9.49413065e-05  9.49413065e-05  3.03551708e-05  6.32885489e-09  1.70002901e-16  4.90059382e-17  -1.02956612e-03  -1.09023046e-03  -1.05994361e-03  -1.05994364e-03  -1.05994364e-03  -1.05994364e-03  6.06643342e-05  3.03774914e-05  3.03775216e-05  3.03775216e-05  3.03775216e-05  3.02868126e-05  3.01447476e-11  1.88651178e-17  4.33680869e-19
2.24215000e-02  -4.60745808e-08  1.51801274e-17  -6.09878951e-18  1.49264906e-18  3.39291645e-18  3.53915215e-18  4.60745808e-08  4.60745808e-08  4.60745808e-08  4.60745808e-08  4.60745808e-08  1.16409752e-17  9.63794166e-18  2.04650309e-18  1.46235699e-19  -2.27272791e-08  -1.70941495e-17  6.71624575e-18  -1.29267270e-18  -3.12850641e-18  -3.48067772e-18  2.27272791e-08  2.27272791e-08  2.27272791e-08  2.27272791e-08  2.27272791e-08  1.36134718e-17  1.01969235e-17  2.18800502e-18  3.52171306e-19  -2.29619934e-03  -2.90389965e-03  -2.31962457e-03  -2.32032931e-03  -2.32032931e-03  -2.32032931e-03  6.07700308e-04  2.34252277e-05  2.41299665e-05  2.41299639e-05  2.41299639e-05  5.83570344e-04  7.04736183e-07  2.61884221e-12  1.19262239e-16  3.49135202e-03  3.61668381e-03  3.58628896e-03  3.58629530e-03  3.58629530e-03  3.58629530e-03  1.25331789e-04  9.49369437e-05  9.49432795e-05  9.49432795e-05  9.49432795e-05  3.03885098e-05  6.33580585e-09  1.70436582e-16  4.90059382e-17  -1.03072800e-03  -1.09142785e-03  -1.06110775e-03  -1.06110778e-03  -1.06110778e-03  -1.06110778e-03  6.06998530e-05  3.03797464e-05  3.03797765e-05  3.03797765e-05  3.03797765e-05  3.03200765e-05  3.01778554e-11  1.88651178e-17  4.33680869e-19
2.46636500e-02  -5.04402996e-08  1.51967631e-17  -6.10547311e-18  1.49428484e-18  3.39663471e-18  3.54303067e-18  5.04402997e-08  5.04402996e-08  5.04402996e-08  5.04402997e-08  5.04402997e-08  1.16537325e-17  9.64850377e-18  2.04874583e-18  1.46395957e-19  -2.51436388e-08  -1.71128828e-17  6.72360602e-18  -1.29408933e-18  -3.13193491e-18  -3.48449216e-18  2.51436387e-08  2.51436388e-08  2.51436388e-08  2.51436388e-08  2.51436388e-08  1.36283907e-17  1.02080982e-17  2.19040283e-18  3.52557247e-19  -2.29877456e-03  -2.90708200e-03  -2.32216662e-03  -2.32287213e-03  -2.32287213e-03  -2.32287213e-03  6.08307446e-04  2.33920643e-05  2.40975754e-05  2.40975728e-05  2.40975728e-05  5.84209873e-04  7.05508496e-07  2.62171231e-12  1.19262239e-16  3.49528045e-03  3.62064729e-03  3.59021914e-03  3.59022548e-03  3.59022548e-03  3.59022548e-03  1.25366840e-04  9.49386850e-05  9.49450278e-05  9.49450278e-05  9.49450278e-05  3.04218123e-05  6.34274920e-09  1.70870262e-16  4.90059382e-17  -1.03188876e-03  -1.09262394e-03  -1.06227060e-03  -1.06227063e-03  -1.06227063e-03  -1.06227063e-03  6.07351757e-05  3.03818415e-05  3.03818718e-05  3.03818718e-05  3.03818718e-05  3.03533040e-05  3.02109271e-11  1.88651178e-17  4.33680869e-19
2.69058000e-02  -5.47510874e-08  1.52133807e-17  -6.11214940e-18  1.49591883e-18  3.40034891e-18  3.54690495e-18  5.47510874e-08  5.47510874e-08  5.47510874e-08  5.47510874e-08  5.47510874e-08  1.16664757e-17  9.65905434e-18  2.05098612e-18  1.46556040e-19  -2.75753805e-08  -1.71315956e-17  6.73095823e-18  -1.29550441e-18  -3.13535966e-18  -3.48830243e-18  2.75753805e-08  2.75753805e-08  2.75753805e-08  2.75753805e-08  2.75753805e-08  1.36432932e-17  1.02192607e-17  2.19279802e-18  3.52942765e-19  -2.30134785e-03  -2.91026088e-03  -2.32470590e-03  -2.32541218e-03  -2.32541218e-03  -2.32541218e-03  6.08913031e-04  2.33580482e-05  2.40643308e-05  2.40643281e-05  2.40643281e-05  5.84848702e-04  7.06279965e-07  2.62457894e-12  1.19262239e-16  3.49920482e-03  3.62460644e-03  3.59414502e-03  3.59415137e-03  3.59415137e-03  3.59415137e-03  1.25401626e-04  9.49401982e-05  9.49465479e-05  9.49465479e-05  9.49465479e-05  3.04550783e-05  6.34968495e-09  1.70870262e-16  4.94396191e-17  -1.03304841e-03  -1.09381871e-03  -1.06343219e-03  -1.06343222e-03  -1.06343222e-03  -1.06343222e-03  6.07703048e-05  3.03837795e-05  3.03838097e-05  3.03838097e-05  3.03838097e-05  3.03864951e-05  3.02439625e-11  1.88651178e-17  4.33680869e-19
2.91479500e-02  -5.90043375e-08  1.52299801e-17  -6.11881841e-18  1.49755104e-18  3.40405905e-18  3.55077500e-18  5.90043375e-08  5.90043375e-08  5.90043375e-08  5.90043375e-08  5.90043375e-08  1.16792051e-17  9.66959340e-18  2.05322396e-18  1.46715948e-19  -3.00197107e-08  -1.71502880e-17  6.73830243e-18  -1.29691794e-18  -3.13878067e-18  -3.49210854e-18  3.00197106e-08  3.00197107e-08  3.00197107e-08  3.00197107e-08  3.00197107e-08  1.36581795e-17  1.02304110e-17  2.19519059e-18  3.53327864e-19  -2.30391921e-03  -2.91343628e-03  -2.32724240e-03  -2.32794945e-03  -2.32794945e-03  -2.32794945e-03  6.09517076e-04  2.33231904e-05  2.40302436e-05  2.40302410e-05  2.40302410e-05  5.85486835e-04  7.07050591e-07  2.62744253e-12  1.19695920e-16  3.50312513e-03  3.62856128e-03  3.59806661e-03  3.59807297e-03  3.59807297e-03  3.59807297e-03  1.25436144e-04  9.49414796e-05  9.49478362e-05  9.49478362e-05  9.49478362e-05  3.04883080e-05  6.35661313e-09  1.71303943e-16  4.94396191e-17  -1.03420694e-03  -1.09501219e-03  -1.06459251e-03  -1.06459254e-03  -1.06459254e-03  -1.06459254e-03  6.08052429e-05  3.03855626e-05  3.03855929e-05  3.03855929e-05  3.03855929e-05  3.04196500e-05  3.02769617e-11  1.90819582e-17  4.33680869e-19
3.13901000e-02  -6.31974521e-08  1.52465615e-17  -6.12548015e-18  1.49918147e-18  3.40776515e-18  3.55464084e-18  6.31974521e-08  6.31974521e-08  6.31974521e-08  6.31974521e-08  6.31974521e-08  1.16919206e-17  9.68012099e-18  2.05545937e-18  1.46875682e-19  -3.24738486e-08  -1.71689601e-17  6.74563862e-18  -1.29832994e-18  -3.14219796e-18  -3.49591050e-18  3.24738486e-08  3.24738486e-08  3.24738486e-08  3.24738486e-08  3.24738486e-08  1.36730496e-17  1.02415491e-17  2.19758057e-18  3.53712543e-19  -2.30648864e-03  -2.91660823e-03  -2.32977614e-03  -2.33048396e-03  -2.33048396e-03  -2.33048396e-03  6.10119594e-04  2.32875018e-05  2.39953248e-05  2.39953222e-05  2.39953222e-05  5.86124272e-04  7.07820379e-07  2.63030353e-12  1.19695920e-16  3.50704141e-03  3.63251180e-03  3.60198394e-03  3.60199030e-03  3.60199030e-03  3.60199030e-03  1.25470391e-04  9.49425255e-05  9.49488891e-05  9.49488891e-05  9.49488891e-05  3.05215016e-05  6.36353377e-09  1.71303943e-16  4.94396191e-17  -1.03536437e-03  -1.09620436e-03  -1.06575156e-03  -1.06575159e-03  -1.06575159e-03  -1.06575159e-03  6.08399925e-05  3.03871934e-05  3.03872237e-05  3.03872237e-05  3.03872237e-05  3.04527688e-05  3.03099254e-11  1.88651178e-17  4.33680869e-19
3.36322500e-02  -6.73278419e-08  1.52631248e-17  -6.13213466e-18  1.50081012e-18  3.41146723e-18  3.55850247e-18  6.73278419e-08  6.73278419e-08  6.73278419e-08  6.73278419e-08  6.73278419e-08  1.17046223e-17  9.69063713e-18  2.05769235e-18  1.47035243e-19  -3.49350268e-08  -1.71876118e-17  6.75296685e-18  -1.29974040e-18  -3.14561153e-18  -3.49970834e-18  3.49350268e-08  3.49350268e-08  3.49350268e-08  3.49350268e-08  3.49350268e-08  1.36879035e-17  1.02526752e-17  2.19996794e-18  3.54096804e-19  -2.30905613e-03  -2.91977673e-03  -2.33230713e-03  -2.33301572e-03  -2.33301572e-03  -2.33301572e-03  6.10720600e-04  2.32509932e-05  2.39595852e-05  2.39595826e-05  2.39595826e-05  5.86761017e-04  7.08589331e-07  2.63316062e-12  1.20129601e-16  3.51095368e-03  3.63645804e-03  3.60589701e-03  3.60590338e-03  3.60590338e-03  3.60590338e-03  1.25504362e-04  9.49433325e-05  9.49497030e-05  9.49497030e-05  9.49497030e-05  3.05546591e-05  6.37044689e-09  1.71303943e-16  4.94396191e-17  -1.03652068e-03  -1.09739524e-03  -1.06690936e-03  -1.06690939e-03  -1.06690939e-03  -1.06690939e-03  6.08745563e-05  3.03886743e-05  3.03887047e-05  3.03887047e-05  3.03887047e-05  3.04858516e-05  3.03428530e-11  1.88651178e-17  4.33680869e-19
3.58744000e-02  -7.13929262e-08  1.52796702e-17  -6.13878196e-18  1.50243702e-18  3.41516530e-18  3.56235993e-18  7.13929263e-08  7.13929262e-08  7.13929262e-08  7.13929263e-08  7.13929263e-08  1.17173102e-17  9.70114188e-18  2.05992291e-18  1.47194630e-19  -3.74004904e-08  -1.72062434e-17  6.76028713e-18  -1.30114933e-18  -3.14902141e-18  -3.50350206e-18  3.74004903e-08  3.74004904e-08  3.74004904e-08  3.74004904e-08  3.74004904e-08  1.37027413e-17  1.02637892e-17  2.20235273e-18  3.54480648e-19  -2.31162169e-03  -2.92294180e-03  -2.33483537e-03  -2.33554473e-03  -2.33554473e-03  -2.33554473e-03  6.11320105e-04  2.32136755e-05  2.39230356e-05  2.39230329e-05  2.39230329e-05  5.87397072e-04  7.09357449e-07  2.63601510e-12  1.20129601e-16  3.51486194e-03  3.64039999e-03  3.60980584e-03  3.60981221e-03  3.60981221e-03  3.60981221e-03  1.25538055e-04  9.49438970e-05  9.49502744e-05  9.49502744e-05  9.49502744e-05  3.05877806e-05  6.37735252e-09  1.71737624e-16  4.94396191e-17  -1.03767589e-03  -1.09858482e-03  -1.06806590e-03  -1.06806593e-03  -1.06806593e-03  -1.06806593e-03  6.09089367e-05  3.03900078e-05  3.03900381e-05  3.03900381e-05  3.03900381e-05  3.05188986e-05  3.03757451e-11  1.88651178e-17  4.33680869e-19
3.81165500e-02  -7.53901332e-08  1.52961977e-17  -6.14542206e-18  1.50406215e-18  3.41885936e-18  3.56621321e-18  7.53901332e-08  7.53901332e-08  7.53901332e-08  7.53901332e-08  7.53901332e-08  1.17299844e-17  9.71163527e-18  2.06215106e-18  1.47353846e-19  -3.98674974e-08  -1.72248548e-17  6.76759950e-18  -1.30255674e-18  -3.15242759e-18  -3.50729167e-18  3.98674974e-08  3.98674974e-08  3.98674974e-08  3.98674974e-08  3.98674974e-08  1.37175631e-17  1.02748912e-17  2.20473494e-18  3.54864077e-19  -2.31418532e-03  -2.92610344e-03  -2.33736088e-03  -2.33807101e-03  -2.33807100e-03  -2.33807100e-03  6.11918123e-04  2.31755592e-05  2.38856866e-05  2.38856840e-05  2.38856840e-05  5.88032439e-04  7.10124736e-07  2.63886656e-12  1.20129601e-16  3.51876622e-03  3.64433769e-03  3.61371044e-03  3.61371682e-03  3.61371682e-03  3.61371682e-03  1.25571466e-04  9.49442154e-05  9.49505997e-05  9.49505997e-05  9.49505997e-05  3.06208664e-05  6.38425068e-09  1.71737624e-16  4.94396191e-17  -1.03882999e-03  -1.09977313e-03  -1.06922119e-03  -1.06922122e-03  -1.06922122e-03  -1.06922122e-03  6.09431363e-05  3.03911961e-05  3.03912265e-05  3.03912265e-05  3.03912265e-05  3.05519098e-05  3.04086014e-11  1.88651178e-17  4.33680869e-19
4.03587000e-02  -7.93168996e-08  1.53127073e-17  -6.15205500e-18  1.50568553e-18  3.42254944e-18  3.57006233e-18  7.93168996e-08  7.93168995e-08  7.93168996e-08  7.93168996e-08  7.93168996e-08  1.17426450e-17  9.72211733e-18  2.06437680e-18  1.47512889e-19  -4.23333187e-08  -1.72434461e-17  6.77490397e-18  -1.30396262e-18  -3.15583010e-18  -3.51107720e-18  4.23333187e-08  4.23333187e-08  4.23333187e-08  4.23333187e-08  4.23333187e-08  1.37323689e-17  1.02859812e-17  2.20711457e-18  3.55247093e-19  -2.31674701e-03  -2.92926167e-03  -2.33988366e-03  -2.34059456e-03  -2.34059455e-03  -2.34059455e-03  6.12514666e-04  2.31366552e-05  2.38475490e-05  2.38475463e-05  2.38475463e-05  5.88667120e-04  7.10891195e-07  2.64171454e-12  1.20563282e-16  3.52266654e-03  3.64827113e-03  3.61761082e-03  3.61761721e-03  3.61761721e-03  3.61761721e-03  1.25604592e-04  9.49442843e-05  9.49506754e-05  9.49506754e-05  9.49506754e-05  3.06539164e-05  6.39114139e-09  1.71737624e-16  4.94396191e-17  -1.03998299e-03  -1.10096014e-03  -1.07037523e-03  -1.07037526e-03  -1.07037526e-03  -1.07037526e-03  6.09771576e-05  3.03922418e-05  3.03922722e-05  3.03922722e-05  3.03922722e-05  3.05848854e-05  3.04414222e-11  1.90819582e-17  4.33680869e-19
4.26008500e-02  -8.31706708e-08  1.53291992e-17  -6.15868079e-18  1.50730716e-18  3.42623554e-18  3.57390730e-18  8.31706708e-08  8.31706708e-08  8.31706708e-08  8.31706708e-08  8.31706708e-08  1.17552919e-17  9.73258810e-18  2.06660014e-18  1.47671761e-19  -4.47952380e-08  -1.72620173e-17  6.78220058e-18  -1.30536700e-18  -3.15922895e-18  -3.51485864e-18  4.47952380e-08  4.47952380e-08  4.47952380e-08  4.47952380e-08  4.47952380e-08  1.37471587e-17  1.02970592e-17  2.20949165e-18  3.55629696e-19  -2.31930676e-03  -2.93241650e-03  -2.34240373e-03  -2.34311539e-03  -2.34311539e-03  -2.34311539e-03  6.13109748e-04  2.30969738e-05  2.38086333e-05  2.38086306e-05  2.38086306e-05  5.89301117e-04  7.11656828e-07  2.64455992e-12  1.20129601e-16  3.52656291e-03  3.65220034e-03  3.62150701e-03  3.62151341e-03  3.62151341e-03  3.62151341e-03  1.25637429e-04  9.49441001e-05  9.49504981e-05  9.49504981e-05  9.49504981e-05  3.06869308e-05  6.39802468e-09  1.72171305e-16  4.94396191e-17  -1.04113488e-03  -1.10214588e-03  -1.07152803e-03  -1.07152806e-03  -1.07152806e-03  -1.07152806e-03  6.10110031e-05  3.03931472e-05  3.03931776e-05  3.03931776e-05  3.03931776e-05  3.06178255e-05  3.04742078e-11  1.90819582e-17  4.33680869e-19
4.48430000e-02  -8.69489012e-08  1.53456733e-17  -6.16529947e-18  1.50892705e-18  3.42991768e-18  3.57774815e-18  8.69489012e-08  8.69489011e-08  8.69489012e-08  8.69489012e-08  8.69489012e-08  1.17679252e-17  9.74304761e-18  2.06882110e-18  1.47830463e-19  -4.72505517e-08  -1.72805687e-17  6.78948934e-18  -1.30676986e-18  -3.16262414e-18  -3.51863603e-18  4.72505517e-08  4.72505517e-08  4.72505517e-08  4.72505517e-08  4.72505517e-08  1.37619326e-17  1.03081254e-17  2.21186616e-18  3.56011887e-19  -2.32186456e-03  -2.93556794e-03  -2.34492109e-03  -2.34563351e-03  -2.34563351e-03  -2.34563351e-03  6.13703381e-04  2.30565257e-05  2.37689500e-05  2.37689474e-05  2.37689474e-05  5.89934434e-04  7.12421639e-07  2.64740183e-12  1.20563282e-16  3.53045535e-03  3.65612532e-03  3.62539901e-03  3.62540541e-03  3.62540541e-03  3.62540541e-03  1.25669974e-04  9.49436593e-05  9.49500642e-05  9.49500642e-05  9.49500642e-05  3.07199098e-05  6.40490058e-09  1.72604986e-16  4.94396191e-17  -1.04228567e-03  -1.10333035e-03  -1.07267959e-03  -1.07267962e-03  -1.07267962e-03  -1.07267962e-03  6.10446753e-05  3.03939146e-05  3.03939451e-05  3.03939451e-05  3.03939451e-05  3.06507302e-05  3.05069581e-11  1.90819582e-17  4.33680869e-19
4.70851500e-02  -9.06490539e-08  1.53621298e-17  -6.17191104e-18  1.51054520e-18  3.43359588e-18  3.58158487e-18  9.06490539e-08  9.06490538e-08  9.06490539e-08  9.06490539e-08  9.06490539e-08  1.17805449e-17  9.75349591e-18  2.07103967e-18  1.47988994e-19  -4.96965685e-08  -1.72991001e-17  6.79677029e-18  -1.30817123e-18  -3.16601569e-18  -3.52240936e-18  4.96965685e-08  4.96965685e-08  4.96965685e-08  4.96965685e-08  4.96965685e-08  1.37766907e-17  1.03191797e-17  2.21423814e-18  3.56393669e-19  -2.32442043e-03  -2.93871600e-03  -2.34743575e-03  -2.34814894e-03  -2.34814893e-03  -2.34814893e-03  6.14295578e-04  2.30153214e-05  2.37285096e-05  2.37285070e-05  2.37285070e-05  5.90567071e-04  7.13185629e-07  2.65024114e-12  1.20563282e-16  3.53434387e-03  3.66004610e-03  3.62928683e-03  3.62929324e-03  3.62929324e-03  3.62929324e-03  1.25702224e-04  9.49429586e-05  9.49493703e-05  9.49493703e-05  9.49493703e-05  3.07528533e-05  6.41176910e-09  1.72604986e-16  4.98732999e-17  -1.04343537e-03  -1.10451354e-03  -1.07382991e-03  -1.07382994e-03  -1.07382994e-03  -1.07382994e-03  6.10781766e-05  3.03945465e-05  3.03945771e-05  3.03945771e-05  3.03945771e-05  3.06835996e-05  3.05396734e-11  1.90819582e-17  4.33680869e-19
4.93273000e-02  -9.42686009e-08  1.53785686e-17  -6.17851554e-18  1.51216162e-18  3.43727013e-18  3.58541749e-18  9.42686009e-08  9.42686009e-08  9.42686009e-08  9.42686009e-08  9.42686009e-08  1.17931512e-17  9.76393303e-18  2.07325587e-18  1.48147355e-19  -5.21306102e-08  -1.73176117e-17  6.80404345e-18  -1.30957109e-18  -3.16940362e-18  -3.52617866e-18  5.21306102e-08  5.21306102e-08  5.21306102e-08  5.21306102e-08  5.21306102e-08  1.37914330e-17  1.03302221e-17  2.21660757e-18  3.56775043e-19  -2.32697434e-03  -2.94186069e-03  -2.34994772e-03  -2.35066167e-03  -2.35066166e-03  -2.35066166e-03  6.14886350e-04  2.29733711e-05  2.36873226e-05  2.36873199e-05  2.36873199e-05  5.91199031e-04  7.13948802e-07  2.65307654e-12  1.20996962e-16  3.53822850e-03  3.66396267e-03  3.63317049e-03  3.63317691e-03  3.63317691e-03  3.63317691e-03  1.25734175e-04  9.49419944e-05  9.49484130e-05  9.49484130e-05  9.49484130e-05  3.07857617e-05  6.41863027e-09  1.73038667e-16  4.98732999e-17  -1.04458396e-03  -1.10569547e-03  -1.07497901e-03  -1.07497904e-03  -1.07497904e-03  -1.07497904e-03  6.11115096e-05  3.03950453e-05  3.03950758e-05  3.03950758e-05  3.03950758e-05  3.07164338e-05  3.05723535e-11  1.92987987e-17  6.50521303e-19
5.15694500e-02  -9.78050232e-08  1.53949900e-17  -6.18511299e-18  1.51377631e-18  3.44094047e-18  3.58924602e-18  9.78050232e-08  9.78050232e-08  9.78050232e-08  9.78050232e-08  9.78050232e-08  1.18057439e-17  9.77435901e-18  2.07546970e-18  1.48305548e-19  -5.45500107e-08  -1.73361035e-17  6.81130884e-18  -1.31096945e-18  -3.17278792e-18  -3.52994393e-18  5.45500106e-08  5.45500107e-08  5.45500107e-08  5.45500107e-08  5.45500107e-08  1.38061596e-17  1.03412528e-17  2.21897448e-18  3.57156009e-19  -2.32952632e-03  -2.94500203e-03  -2.35245700e-03  -2.35317171e-03  -2.35317171e-03  -2.35317171e-03  6.15475712e-04  2.29306854e-05  2.36453992e-05  2.36453965e-05  2.36453965e-05  5.91830316e-04  7.14711160e-07  2.65591021e-12  1.20996962e-16  3.54210925e-03  3.66787507e-03  3.63705001e-03  3.63705644e-03  3.63705644e-03  3.63705644e-03  1.25765824e-04  9.49407633e-05  9.49471888e-05  9.49471888e-05  9.49471888e-05  3.08186348e-05  6.42548411e-09  1.73038667e-16  4.98732999e-17  -1.04573146e-03  -1.10687614e-03  -1.07612688e-03  -1.07612691e-03  -1.07612691e-03  -1.07612691e-03  6.11446767e-05  3.03954131e-05  3.03954437e-05  3.03954437e-05  3.03954437e-05  3.07492329e-05  3.06049990e-11  1.90819582e-17  4.33680869e-19
5.38116000e-02  -1.01255811e-07  1.54113938e-17  -6.19170341e-18  1.51538929e-18  3.44460689e-18  3.59307046e-18  1.01255811e-07  1.01255811e-07  1.01255811e-07  1.01255811e-07  1.01255811e-07  1.18183233e-17  9.78477387e-18  2.07768117e-18  1.48463572e-19  -5.69521166e-08  -1.73545756e-17  6.81856649e-18  -1.31236633e-18  -3.17616862e-18  -3.53370519e-18  5.69521166e-08  5.69521166e-08  5.69521166e-08  5.69521166e-08  5.69521166e-08  1.38208705e-17  1.03522717e-17  2.22133886e-18  3.57536569e-19  -2.33207634e-03  -2.94814001e-03  -2.35496361e-03  -2.35567909e-03  -2.35567909e-03  -2.35567909e-03  6.16063675e-04  2.28872744e-05  2.36027498e-05  2.36027471e-05  2.36027471e-05  5.92460928e-04  7.15472706e-07  2.65873998e-12  1.20996962e-16  3.54598613e-03  3.67178330e-03  3.64092539e-03  3.64093183e-03  3.64093183e-03  3.64093183e-03  1.25797167e-04  9.49392619e-05  9.49456943e-05  9.49456943e-05  9.49456943e-05  3.08514730e-05  6.43233066e-09  1.73038667e-16  4.98732999e-17  -1.04687787e-03  -1.10805555e-03  -1.07727352e-03  -1.07727355e-03  -1.07727355e-03  -1.07727355e-03  6.11776802e-05  3.03956525e-05  3.03956831e-05  3.03956831e-05  3.03956831e-05  3.07819971e-05  3.06376094e-11  1.90819582e-17  4.33680869e-19
5.60537500e-02  -1.04618462e-07  1.54277801e-17  -6.19828682e-18  1.51700055e-18  3.44826941e-18  3.59689084e-18  1.04618462e-07  1.04618462e-07  1.04618462e-07  1.04618462e-07  1.04618462e-07  1.18308893e-17  9.79517767e-18  2.07989030e-18  1.48621428e-19  -5.93342869e-08  -1.73730281e-17  6.82581642e-18  -1.31376172e-18  -3.17954572e-18  -3.53746245e-18  5.93342869e-08  5.93342869e-08  5.93342869e-08  5.93342869e-08  5.93342869e-08  1.38355657e-17  1.03632789e-17  2.22370073e-18  3.57916725e-19  -2.33462441e-03  -2.95127466e-03  -2.35746756e-03  -2.35818380e-03  -2.35818379e-03  -2.35818379e-03  6.16650252e-04  2.28431484e-05  2.35593845e-05  2.35593819e-05  2.35593819e-05  5.93090870e-04  7.16233442e-07  2.66156671e-12  1.20996962e-16  3.54985917e-03  3.67568737e-03  3.64479666e-03  3.64480310e-03  3.64480310e-03  3.64480310e-03  1.25828202e-04  9.49374869e-05  9.49439261e-05  9.49439261e-05  9.49439261e-05  3.08842762e-05  6.43916992e-09  1.73038667e-16  4.98732999e-17  -1.04802318e-03  -1.10923370e-03  -1.07841895e-03  -1.07841898e-03  -1.07841898e-03  -1.07841898e-03  6.12105228e-05  3.03957656e-05  3.03957963e-05  3.03957963e-05  3.03957963e-05  3.08147265e-05  3.06701851e-11  1.90819582e-17  4.33680869e-19
5.82959000e-02  -1.07890485e-07  1.54441491e-17  -6.20486325e-18  1.51861009e-18  3.45192805e-18  3.60070717e-18  1.07890485e-07  1.07890485e-07  1.07890485e-07  1.07890485e-07  1.07890485e-07  1.18434420e-17  9.80557042e-18  2.08209708e-18  1.48779116e-19  -6.16938929e-08  -1.73914610e-17  6.83305866e-18  -1.31515563e-18  -3.18291924e-18  -3.54121572e-18  6.16938929e-08  6.16938929e-08  6.16938929e-08  6.16938929e-08  6.16938929e-08  1.38502453e-17  1.03742744e-17  2.22606009e-18  3.58296477e-19  -2.33717053e-03  -2.95440599e-03  -2.35996885e-03  -2.36068585e-03  -2.36068584e-03  -2.36068584e-03  6.17235455e-04  2.27983176e-05  2.35153136e-05  2.35153109e-05  2.35153109e-05  5.93720144e-04  7.16993370e-07  2.66439084e-12  1.21430643e-16  3.55372838e-03  3.67958730e-03  3.64866381e-03  3.64867026e-03  3.64867026e-03  3.64867026e-03  1.25858926e-04  9.49354349e-05  9.49418809e-05  9.49418809e-05  9.49418809e-05  3.09170447e-05  6.44600192e-09  1.73472348e-16  4.98732999e-17  -1.04916740e-03  -1.11041061e-03  -1.07956316e-03  -1.07956319e-03  -1.07956319e-03  -1.07956319e-03  6.12432067e-05  3.03957548e-05  3.03957855e-05  3.03957855e-05  3.03957855e-05  3.08474212e-05  3.07027266e-11  1.90819582e-17  4.33680869e-19
6.05380500e-02  -1.11069396e-07  1.54605008e-17  -6.21143271e-18  1.52021794e-18  3.45558282e-18  3.60451946e-18  1.11069396e-07  1.11069396e-07  1.11069396e-07  1.11069396e-07  1.11069396e-07  1.18559813e-17  9.81595217e-18  2.08430152e-18  1.48936637e-19  -6.40283184e-08  -1.74098744e-17  6.84029323e-18  -1.31654807e-18  -3.18628919e-18  -3.54496502e-18  6.40283184e-08  6.40283184e-08  6.40283184e-08  6.40283184e-08  6.40283184e-08  1.38649094e-17  1.03852583e-17  2.22841695e-18  3.58675827e-19  -2.33971470e-03  -2.95753399e-03  -2.36246749e-03  -2.36318525e-03  -2.36318524e-03  -2.36318524e-03  6.17819296e-04  2.27527920e-05  2.34705472e-05  2.34705445e-05  2.34705445e-05  5.94348751e-04  7.17752495e-07  2.66721150e-12  1.21430643e-16  3.55759377e-03  3.68348311e-03  3.65252687e-03  3.65253333e-03  3.65253333e-03  3.65253333e-03  1.25889334e-04  9.49331024e-05  9.49395553e-05  9.49395553e-05  9.49395553e-05  3.09497784e-05  6.45282670e-09  1.73906028e-16  4.98732999e-17  -1.05031053e-03  -1.11158627e-03  -1.08070616e-03  -1.08070619e-03  -1.08070619e-03  -1.08070619e-03  6.12757344e-05  3.03956225e-05  3.03956532e-05  3.03956532e-05  3.03956532e-05  3.08800812e-05  3.07352334e-11  1.92987987e-17  4.33680869e-19
6.27802000e-02  -1.14152721e-07  1.54768352e-17  -6.21799524e-18  1.52182408e-18  3.45923372e-18  3.60832771e-18  1.14152721e-07  1.14152721e-07  1.14152721e-07  1.14152721e-07  1.14152721e-07  1.18685074e-17  9.82632295e-18  2.08650363e-18  1.49093992e-19  -6.63349591e-08  -1.74282684e-17  6.84752016e-18  -1.31793903e-18  -3.18965558e-18  -3.54871036e-18  6.63349591e-08  6.63349591e-08  6.63349591e-08  6.63349591e-08  6.63349591e-08  1.38795580e-17  1.03962305e-17  2.23077133e-18  3.59054776e-19  -2.34225691e-03  -2.96065870e-03  -2.36496349e-03  -2.36568201e-03  -2.36568200e-03  -2.36568200e-03  6.18401787e-04  2.27065818e-05  2.34250953e-05  2.34250926e-05  2.34250926e-05  5.94976695e-04  7.18510817e-07  2.67002956e-12  1.21430643e-16  3.56145537e-03  3.68737479e-03  3.65638585e-03  3.65639231e-03  3.65639231e-03  3.65639231e-03  1.25919424e-04  9.49304863e-05  9.49369460e-05  9.49369460e-05  9.49369460e-05  3.09824776e-05  6.45964426e-09  1.73906028e-16  5.03069808e-17  -1.05145258e-03  -1.11276068e-03  -1.08184795e-03  -1.08184798e-03  -1.08184798e-03  -1.08184798e-03  6.13081082e-05  3.03953708e-05  3.03954015e-05  3.03954015e-05  3.03954015e-05  3.09127067e-05  3.07677059e-11  1.92987987e-17  4.33680869e-19
6.50223500e-02  -1.17137995e-07  1.54931523e-17  -6.22455084e-18  1.52342854e-18  3.46288078e-18  3.61213196e-18  1.17137995e-07  1.17137995e-07  1.17137995e-07  1.17137995e-07  1.17137995e-07  1.18810204e-17  9.83668280e-18  2.08870342e-18  1.49251182e-19  -6.86112232e-08  -1.74466429e-17  6.85473947e-18  -1.31932853e-18  -3.19301842e-18  -3.55245175e-18  6.86112232e-08  6.86112232e-08  6.86112232e-08  6.86112232e-08  6.86112232e-08  1.38941912e-17  1.04071912e-17  2.23312322e-18  3.59433326e-19  -2.34479717e-03  -2.96378011e-03  -2.36745686e-03  -2.36817613e-03  -2.36817613e-03  -2.36817613e-03  6.18982941e-04  2.26596968e-05  2.33789679e-05  2.33789652e-05  2.33789652e-05  5.95603976e-04  7.19268339e-07  2.67284458e-12  1.21864324e-16  3.56531318e-03  3.69126237e-03  3.66024076e-03  3.66024723e-03  3.66024723e-03  3.66024723e-03  1.25949192e-04  9.49275832e-05  9.49340496e-05  9.49340496e-05  9.49340496e-05  3.10151423e-05  6.46645463e-09  1.74339709e-16  5.03069808e-17  -1.05259353e-03  -1.11393386e-03  -1.08298853e-03  -1.08298856e-03  -1.08298856e-03  -1.08298856e-03  6.13403307e-05  3.03950020e-05  3.03950328e-05  3.03950328e-05  3.03950328e-05  3.09452978e-05  3.08001441e-11  1.92987987e-17  4.33680869e-19
6.72645000e-02  -1.20022762e-07  1.55094523e-17  -6.23109955e-18  1.52503130e-18  3.46652399e-18  3.61593220e-18  1.20022762e-07  1.20022762e-07  1.20022762e-07  1.20022762e-07  1.20022762e-07  1.18935201e-17  9.84703175e-18  2.09090090e-18  1.49408205e-19  -7.08545309e-08  -1.74649981e-17  6.86195118e-18  -1.32071656e-18  -3.19637772e-18  -3.55618920e-18  7.08545309e-08  7.08545309e-08  7.08545309e-08  7.08545309e-08  7.08545309e-08  1.39088089e-17  1.04181404e-17  2.23547264e-18  3.59811478e-19  -2.34733546e-03  -2.96689823e-03  -2.36994761e-03  -2.37066764e-03  -2.37066763e-03  -2.37066763e-03  6.19562769e-04  2.26121472e-05  2.33321749e-05  2.33321722e-05  2.33321722e-05  5.96230597e-04  7.20025065e-07  2.67565657e-12  1.21864324e-16  3.56916723e-03  3.69514587e-03  3.66409162e-03  3.66409809e-03  3.66409809e-03  3.66409809e-03  1.25978636e-04  9.49243897e-05  9.49308629e-05  9.49308629e-05  9.49308629e-05  3.10477726e-05  6.47325784e-09  1.73906028e-16  4.98732999e-17  -1.05373340e-03  -1.11510581e-03  -1.08412792e-03  -1.08412795e-03  -1.08412795e-03  -1.08412795e-03  6.13724040e-05  3.03945185e-05  3.03945493e-05  3.03945493e-05  3.03945493e-05  3.09778547e-05  3.08325483e-11  1.92987987e-17  4.33680869e-19
6.95066500e-02  -1.22804573e-07  1.55257352e-17  -6.23764138e-18  1.52663238e-18  3.47016339e-18  3.61972845e-18  1.22804573e-07  1.22804573e-07  1.22804573e-07  1.22804573e-07  1.22804573e-07  1.19060067e-17  9.85736983e-18  2.09309607e-18  1.49565064e-19  -7.30623146e-08  -1.74833341e-17  6.86915533e-18  -1.32210314e-18  -3.19973350e-18  -3.55992273e-18  7.30623146e-08  7.30623146e-08  7.30623146e-08  7.30623146e-08  7.30623146e-08  1.39234113e-17  1.04290781e-17  2.23781959e-18  3.60189232e-19  -2.34987180e-03  -2.97001308e-03  -2.37243574e-03  -2.37315653e-03  -2.37315652e-03  -2.37315652e-03  6.20141284e-04  2.25639426e-05  2.32847263e-05  2.32847236e-05  2.32847236e-05  5.96856561e-04  7.20780996e-07  2.67846552e-12  1.22298005e-16  3.57301753e-03  3.69902528e-03  3.66793843e-03  3.66794491e-03  3.66794491e-03  3.66794491e-03  1.26007751e-04  9.49209026e-05  9.49273827e-05  9.49273827e-05  9.49273827e-05  3.10803687e-05  6.48005390e-09  1.74773390e-16  5.03069808e-17  -1.05487219e-03  -1.11627652e-03  -1.08526611e-03  -1.08526614e-03  -1.08526614e-03  -1.08526614e-03  6.14043306e-05  3.03939225e-05  3.03939533e-05  3.03939533e-05  3.03939533e-05  3.10103773e-05  3.08649183e-11  1.92987987e-17  4.33680869e-19
7.17488000e-02  -1.25480992e-07  1.55420010e-17  -6.24417636e-18  1.52823179e-18  3.47379897e-18  3.62352072e-18  1.25480992e-07  1.25480992e-07  1.25480992e-07  1.25480992e-07  1.25480992e-07  1.19184803e-17  9.86769708e-18  2.09528894e-18  1.49721759e-19  -7.52320186e-08  -1.75016508e-17  6.87635192e-18  -1.32348826e-18  -3.20308575e-18  -3.56365235e-18  7.52320186e-08  7.52320186e-08  7.52320186e-08  7.52320186e-08  7.52320186e-08  1.39379985e-17  1.04400043e-17  2.24016408e-18  3.60566591e-19  -2.35240617e-03  -2.97312467e-03  -2.37492127e-03  -2.37564281e-03  -2.37564280e-03  -2.37564280e-03  6.20718497e-04  2.25150930e-05  2.32366319e-05  2.32366292e-05  2.32366292e-05  5.97481868e-04  7.21536136e-07  2.68127187e-12  1.21864324e-16  3.57686410e-03  3.70290063e-03  3.67178121e-03  3.67178770e-03  3.67178770e-03  3.67178770e-03  1.26036536e-04  9.49171187e-05  9.49236055e-05  9.49236055e-05  9.49236055e-05  3.11129306e-05  6.48684285e-09  1.74773390e-16  5.03069808e-17  -1.05600990e-03  -1.11744601e-03  -1.08640311e-03  -1.08640314e-03  -1.08640314e-03  -1.08640314e-03  6.14361129e-05  3.03932161e-05  3.03932470e-05  3.03932470e-05  3.03932470e-05  3.10428659e-05  3.08972546e-11  1.92987987e-17  4.33680869e-19
7.39909500e-02  -1.28049589e-07  1.55582498e-17  -6.25070450e-18  1.52982952e-18  3.47743074e-18  3.62730903e-18  1.28049589e-07  1.28049589e-07  1.28049589e-07  1.28049589e-07  1.28049589e-07  1.19309408e-17  9.87801354e-18  2.09747952e-18  1.49878290e-19  -7.73610992e-08  -1.75199484e-17  6.88354099e-18  -1.32487194e-18  -3.20643451e-18  -3.56737806e-18  7.73610992e-08  7.73610992e-08  7.73610992e-08  7.73610992e-08  7.73610992e-08  1.39525703e-17  1.04509191e-17  2.24250612e-18  3.60943555e-19  -2.35493859e-03  -2.97623301e-03  -2.37740419e-03  -2.37812649e-03  -2.37812648e-03  -2.37812648e-03  6.21294421e-04  2.24656082e-05  2.31879013e-05  2.31878987e-05  2.31878987e-05  5.98106522e-04  7.22290486e-07  2.68407518e-12  1.22298005e-16  3.58070694e-03  3.70677193e-03  3.67561998e-03  3.67562647e-03  3.67562647e-03  3.67562647e-03  1.26064987e-04  9.49130347e-05  9.49195283e-05  9.49195283e-05  9.49195283e-05  3.11454584e-05  6.49362470e-09  1.74773390e-16  5.03069808e-17  -1.05714652e-03  -1.11861427e-03  -1.08753892e-03  -1.08753895e-03  -1.08753895e-03  -1.08753895e-03  6.14677532e-05  3.03924017e-05  3.03924326e-05  3.03924326e-05  3.03924326e-05  3.10753205e-05  3.09295569e-11  1.92987987e-17  4.33680869e-19
7.62331000e-02  -1.30507944e-07  1.55744817e-17  -6.25722584e-18  1.53142558e-18  3.48105873e-18  3.63109339e-18  1.30507944e-07  1.30507944e-07  1.30507944e-07  1.30507944e-07  1.30507944e-07  1.19433883e-17  9.88831923e-18  2.09966781e-18  1.50034657e-19  -7.94470245e-08  -1.75382269e-17  6.89072257e-18  -1.32625418e-18  -3.20977977e-18  -3.57109990e-18  7.94470245e-08  7.94470246e-08  7.94470245e-08  7.94470245e-08  7.94470245e-08  1.39671270e-17  1.04618225e-17  2.24484572e-18  3.61320126e-19  -2.35746903e-03  -2.97933810e-03  -2.37988453e-03  -2.38060758e-03  -2.38060757e-03  -2.38060757e-03  6.21869066e-04  2.24154978e-05  2.31385445e-05  2.31385418e-05  2.31385418e-05  5.98730524e-04  7.23044048e-07  2.68687546e-12  1.22298005e-16  3.58454609e-03  3.71063919e-03  3.67945474e-03  3.67946124e-03  3.67946124e-03  3.67946124e-03  1.26093100e-04  9.49086474e-05  9.49151478e-05  9.49151478e-05  9.49151478e-05  3.11779524e-05  6.50039947e-09  1.74773390e-16  5.03069808e-17  -1.05828206e-03  -1.11978132e-03  -1.08867355e-03  -1.08867358e-03  -1.08867358e-03  -1.08867358e-03  6.14992537e-05  3.03914815e-05  3.03915124e-05  3.03915124e-05  3.03915124e-05  3.11077413e-05  3.09618256e-11  1.92987987e-17  4.33680869e-19
7.84752500e-02  -1.32853646e-07  1.55906966e-17  -6.26374039e-18  1.53301999e-18  3.48468295e-18  3.63487381e-18  1.32853646e-07  1.32853646e-07  1.32853646e-07  1.32853646e-07  1.32853646e-07  1.19558228e-17  9.89861419e-18  2.10185382e-18  1.50190862e-19  -8.14872750e-08  -1.75564863e-17  6.89789666e-18  -1.32763497e-18  -3.21312155e-18  -3.57481785e-18  8.14872750e-08  8.14872750e-08  8.14872750e-08  8.14872750e-08  8.14872750e-08  1.39816685e-17  1.04727145e-17  2.24718288e-18  3.61696305e-19  -2.35999751e-03  -2.98243996e-03  -2.38236228e-03  -2.38308608e-03  -2.38308608e-03  -2.38308608e-03  6.22442445e-04  2.23647714e-05  2.30885709e-05  2.30885683e-05  2.30885683e-05  5.99353877e-04  7.23796827e-07  2.68967314e-12  1.22298005e-16  3.58838155e-03  3.71450243e-03  3.68328551e-03  3.68329201e-03  3.68329201e-03  3.68329201e-03  1.26120873e-04  9.49039535e-05  9.49104607e-05  9.49104607e-05  9.49104607e-05  3.12104125e-05  6.50716719e-09  1.75207071e-16  5.07406617e-17  -1.05941653e-03  -1.12094715e-03  -1.08980699e-03  -1.08980702e-03  -1.08980702e-03  -1.08980702e-03  6.15306169e-05  3.03904576e-05  3.03904886e-05  3.03904886e-05  3.03904886e-05  3.11401283e-05  3.09940608e-11  1.92987987e-17  4.33680869e-19
8.07174000e-02  -1.35084293e-07  1.56068947e-17  -6.27024816e-18  1.53461273e-18  3.48830339e-18  3.63865030e-18  1.35084293e-07  1.35084293e-07  1.35084293e-07  1.35084293e-07  1.35084293e-07  1.19682444e-17  9.90889846e-18  2.10403756e-18  1.50346904e-19  -8.34793421e-08  -1.75747268e-17  6.90506330e-18  -1.32901433e-18  -3.21645985e-18  -3.57853195e-18  8.34793421e-08  8.34793421e-08  8.34793421e-08  8.34793421e-08  8.34793421e-08  1.39961949e-17  1.04835952e-17  2.24951762e-18  3.62072093e-19  -2.36252403e-03  -2.98553859e-03  -2.38483746e-03  -2.38556202e-03  -2.38556201e-03  -2.38556201e-03  6.23014569e-04  2.23134388e-05  2.30379903e-05  2.30379876e-05  2.30379876e-05  5.99976582e-04  7.24548823e-07  2.69246691e-12  1.22731686e-16  3.59221334e-03  3.71836165e-03  3.68711229e-03  3.68711881e-03  3.68711881e-03  3.68711881e-03  1.26148303e-04  9.48989499e-05  9.49054639e-05  9.49054639e-05  9.49054639e-05  3.12428389e-05  6.51392788e-09  1.75207071e-16  5.03069808e-17  -1.06054992e-03  -1.12211177e-03  -1.09093926e-03  -1.09093929e-03  -1.09093929e-03  -1.09093929e-03  6.15618449e-05  3.03893323e-05  3.03893633e-05  3.03893633e-05  3.03893633e-05  3.11724816e-05  3.10262623e-11  1.95156391e-17  4.33680869e-19
8.29595500e-02  -1.37197491e-07  1.56230761e-17  -6.27674919e-18  1.53620383e-18  3.49192009e-18  3.64242287e-18  1.37197491e-07  1.37197491e-07  1.37197491e-07  1.37197491e-07  1.37197491e-07  1.19806532e-17  9.91917206e-18  2.10621904e-18  1.50502784e-19  -8.54207298e-08  -1.75929484e-17  6.91222251e-18  -1.33039226e-18  -3.21979470e-18  -3.58224219e-18  8.54207298e-08  8.54207298e-08  8.54207298e-08  8.54207298e-08  8.54207298e-08  1.40107062e-17  1.04944647e-17  2.25184993e-18  3.62447492e-19  -2.36504857e-03  -2.98863402e-03  -2.38731008e-03  -2.38803538e-03  -2.38803538e-03  -2.38803538e-03  6.23585450e-04  2.22615094e-05  2.29868121e-05  2.29868094e-05  2.29868094e-05  6.00598641e-04  7.25300039e-07  2.69525895e-12  1.22731686e-16  3.59604148e-03  3.72221687e-03  3.69093511e-03  3.69094163e-03  3.69094163e-03  3.69094163e-03  1.26175386e-04  9.48936335e-05  9.49001542e-05  9.49001542e-05  9.49001542e-05  3.12752316e-05  6.52068156e-09  1.75640752e-16  5.07406617e-17  -1.06168224e-03  -1.12327518e-03  -1.09207035e-03  -1.09207038e-03  -1.09207038e-03  -1.09207038e-03  6.15929402e-05  3.03881077e-05  3.03881388e-05  3.03881388e-05  3.03881388e-05  3.12048015e-05  3.10584306e-11  1.92987987e-17  4.33680869e-19
8.52017000e-02  -1.39190858e-07  1.56392406e-17  -6.28324350e-18  1.53779328e-18  3.49553304e-18  3.64619154e-18  1.39190858e-07  1.39190858e-07  1.39190858e-07  1.39190858e-07  1.39190858e-07  1.19930491e-17  9.92943504e-18  2.10839826e-18  1.50658504e-19  -8.73089532e-08  -1.76111511e-17  6.91937431e-18  -1.33176876e-18  -3.22312609e-18  -3.58594859e-18  8.73089531e-08  8.73089532e-08  8.73089532e-08  8.73089532e-08  8.73089532e-08  1.40252025e-17  1.05053229e-17  2.25417983e-18  3.62822502e-19  -2.36757114e-03  -2.99172624e-03  -2.38978013e-03  -2.39050619e-03  -2.39050618e-03  -2.39050618e-03  6.24155100e-04  2.22089927e-05  2.29350459e-05  2.29350432e-05  2.29350432e-05  6.01220056e-04  7.26050478e-07  2.69804751e-12  1.22731686e-16  3.59986598e-03  3.72606810e-03  3.69475398e-03  3.69476050e-03  3.69476050e-03  3.69476050e-03  1.26202119e-04  9.48880010e-05  9.48945284e-05  9.48945284e-05  9.48945284e-05  3.13075909e-05  6.52742825e-09  1.76074433e-16  5.07406617e-17  -1.06281348e-03  -1.12443739e-03  -1.09320027e-03  -1.09320030e-03  -1.09320030e-03  -1.09320030e-03  6.16239050e-05  3.03867861e-05  3.03868171e-05  3.03868171e-05  3.03868171e-05  3.12370878e-05  3.10905655e-11  1.92987987e-17  4.33680869e-19
8.74438500e-02  -1.41062017e-07  1.56553885e-17  -6.28973110e-18  1.53938109e-18  3.49914226e-18  3.64995632e-18  1.41062017e-07  1.41062017e-07  1.41062017e-07  1.41062017e-07  1.41062017e-07  1.20054322e-17  9.93968742e-18  2.11057524e-18  1.50814062e-19  -8.91415392e-08  -1.76293351e-17  6.92651873e-18  -1.33314385e-18  -3.22645405e-18  -3.58965117e-18  8.91415392e-08  8.91415392e-08  8.91415392e-08  8.91415392e-08  8.91415392e-08  1.40396839e-17  1.05161699e-17  2.25650732e-18  3.63197125e-19  -2.37009174e-03  -2.99481527e-03  -2.39224764e-03  -2.39297444e-03  -2.39297444e-03  -2.39297444e-03  6.24723529e-04  2.21558982e-05  2.28827011e-05  2.28826984e-05  2.28826984e-05  6.01840830e-04  7.26800143e-07  2.70083348e-12  1.22731686e-16  3.60368685e-03  3.72991535e-03  3.69856890e-03  3.69857543e-03  3.69857543e-03  3.69857543e-03  1.26228500e-04  9.48820493e-05  9.48885835e-05  9.48885835e-05  9.48885835e-05  3.13399167e-05  6.53416797e-09  1.76074433e-16  5.07406617e-17  -1.06394366e-03  -1.12559840e-03  -1.09432903e-03  -1.09432906e-03  -1.09432906e-03  -1.09432906e-03  6.16547415e-05  3.03853695e-05  3.03854006e-05  3.03854006e-05  3.03854006e-05  3.12693409e-05  3.11226669e-11  1.95156391e-17  6.50521303e-19
8.96860000e-02  -1.42808603e-07  1.56715198e-17  -6.29621201e-18  1.54096726e-18  3.50274776e-18  3.65371722e-18  1.42808603e-07  1.42808603e-07  1.42808603e-07  1.42808603e-07  1.42808603e-07  1.20178026e-17  9.94992923e-18  2.11274996e-18  1.50969460e-19  -9.09160265e-08  -1.76475003e-17  6.93365579e-18  -1.33451751e-18  -3.22977857e-18  -3.59334993e-18  9.09160265e-08  9.09160266e-08  9.09160265e-08  9.09160265e-08  9.09160265e-08  1.40541503e-17  1.05270057e-17  2.25883242e-18  3.63571361e-19  -2.37261036e-03  -2.99790111e-03  -2.39471260e-03  -2.39544015e-03  -2.39544015e-03  -2.39544015e-03  6.25290749e-04  2.21022353e-05  2.28297870e-05  2.28297843e-05  2.28297843e-05  6.02460965e-04  7.27549035e-07  2.70361641e-12  1.23165367e-16  3.60750411e-03  3.73375864e-03  3.70237989e-03  3.70238643e-03  3.70238643e-03  3.70238643e-03  1.26254525e-04  9.48757753e-05  9.48823162e-05  9.48823162e-05  9.48823162e-05  3.13722092e-05  6.54090075e-09  1.76074433e-16  5.03069808e-17  -1.06507276e-03  -1.12675821e-03  -1.09545662e-03  -1.09545665e-03  -1.09545665e-03  -1.09545665e-03  6.16854520e-05  3.03838602e-05  3.03838914e-05  3.03838914e-05  3.03838914e-05  3.13015607e-05  3.11547359e-11  1.92987987e-17  4.33680869e-19
9.19281500e-02  -1.44428260e-07  1.56876344e-17  -6.30268626e-18  1.54255180e-18  3.50634956e-18  3.65747425e-18  1.44428260e-07  1.44428260e-07  1.44428260e-07  1.44428260e-07  1.44428260e-07  1.20301602e-17  9.96016051e-18  2.11492246e-18  1.51124699e-19  -9.26299651e-08  -1.76656468e-17  6.94078551e-18  -1.33588977e-18  -3.23309968e-18  -3.59704489e-18  9.26299651e-08  9.26299651e-08  9.26299651e-08  9.26299651e-08  9.26299651e-08  1.40686019e-17  1.05378304e-17  2.26115512e-18  3.63945213e-19  -2.37512701e-03  -3.00098379e-03  -2.39717503e-03  -2.39790333e-03  -2.39790332e-03  -2.39790332e-03  6.25856772e-04  2.20480132e-05  2.27763131e-05  2.27763104e-05  2.27763104e-05  6.03080461e-04  7.28297157e-07  2.70639630e-12  1.23165367e-16  3.61131778e-03  3.73759798e-03  3.70618696e-03  3.70619351e-03  3.70619351e-03  3.70619351e-03  1.26280192e-04  9.48691759e-05  9.48757236e-05  9.48757236e-05  9.48757236e-05  3.14044685e-05  6.54762661e-09  1.76508114e-16  5.07406617e-17  -1.06620079e-03  -1.12791683e-03  -1.09658305e-03  -1.09658308e-03  -1.09658308e-03  -1.09658308e-03  6.17160388e-05  3.03822603e-05  3.03822915e-05  3.03822915e-05  3.03822915e-05  3.13337473e-05  3.11867715e-11  1.95156391e-17  4.33680869e-19
9.41703000e-02  -1.45918639e-07  1.57037326e-17  -6.30915386e-18  1.54413471e-18  3.50994765e-18  3.66122743e-18  1.45918639e-07  1.45918639e-07  1.45918639e-07  1.45918639e-07  1.45918639e-07  1.20425051e-17  9.97038130e-18  2.11709272e-18  1.51279778e-19  -9.42809164e-08  -1.76837747e-17  6.94790791e-18  -1.33726061e-18  -3.23641738e-18  -3.60073606e-18  9.42809164e-08  9.42809164e-08  9.42809164e-08  9.42809164e-08  9.42809164e-08  1.40830386e-17  1.05486440e-17  2.26347545e-18  3.64318682e-19  -2.37764169e-03  -3.00406330e-03  -2.39963493e-03  -2.40036398e-03  -2.40036397e-03  -2.40036397e-03  6.26421608e-04  2.19932413e-05  2.27222885e-05  2.27222858e-05  2.27222858e-05  6.03699322e-04  7.29044511e-07  2.70917360e-12  1.23165367e-16  3.61512788e-03  3.74143337e-03  3.70999013e-03  3.70999668e-03  3.70999668e-03  3.70999668e-03  1.26305497e-04  9.48622481e-05  9.48688024e-05  9.48688024e-05  9.48688024e-05  3.14366947e-05  6.55434557e-09  1.76508114e-16  5.07406617e-17  -1.06732776e-03  -1.12907426e-03  -1.09770833e-03  -1.09770836e-03  -1.09770836e-03  -1.09770836e-03  6.17465041e-05  3.03805719e-05  3.03806032e-05  3.03806032e-05  3.03806032e-05  3.13659010e-05  3.12187743e-11  1.95156391e-17  4.33680869e-19
9.64124500e-02  -1.47277401e-07  1.57198142e-17  -6.31561485e-18  1.54571601e-18  3.51354207e-18  3.66497677e-18  1.47277401e-07  1.47277401e-07  1.47277401e-07  1.47277401e-07  1.47277401e-07  1.20548374e-17  9.98059161e-18  2.11926076e-18  1.51434698e-19  -9.58664533e-08  -1.77018840e-17  6.95502301e-18  -1.33863005e-18  -3.23973168e-18  -3.60442344e-18  9.58664532e-08  9.58664533e-08  9.58664533e-08  9.58664533e-08  9.58664533e-08  1.40974606e-17  1.05594465e-17  2.26579339e-18  3.64691768e-19  -2.38015438e-03  -3.00713965e-03  -2.40209231e-03  -2.40282210e-03  -2.40282210e-03  -2.40282210e-03  6.26985269e-04  2.19379288e-05  2.26677226e-05  2.26677199e-05  2.26677199e-05  6.04317550e-04  7.29791099e-07  2.71194785e-12  1.23599048e-16  3.61893441e-03  3.74526484e-03  3.71378940e-03  3.71379596e-03  3.71379596e-03  3.71379596e-03  1.26330438e-04  9.48549886e-05  9.48615497e-05  9.48615497e-05  9.48615497e-05  3.14688880e-05  6.56105764e-09  1.76941795e-16  5.11743425e-17  -1.06845365e-03  -1.13023050e-03  -1.09883245e-03  -1.09883248e-03  -1.09883248e-03  -1.09883248e-03  6.17768502e-05  3.03787972e-05  3.03788285e-05  3.03788285e-05  3.03788285e-05  3.13980217e-05  3.12507444e-11  1.95156391e-17  4.33680869e-19
9.86546000e-02  -1.48502217e-07  1.57358794e-17  -6.32206922e-18  1.54729569e-18  3.51713281e-18  3.66872227e-18  1.48502217e-07  1.48502217e-07  1.48502217e-07  1.48502217e-07  1.48502217e-07  1.20671571e-17  9.99079149e-18  2.12142658e-18  1.51589460e-19  -9.73841600e-08  -1.77199748e-17  6.96213085e-18  -1.33999810e-18  -3.24304259e-18  -3.60810706e-18  9.73841600e-08  9.73841600e-08  9.73841600e-08  9.73841600e-08  9.73841600e-08  1.41118678e-17  1.05702379e-17  2.26810897e-18  3.65064472e-19  -2.38266510e-03  -3.01021286e-03  -2.40454718e-03  -2.40527772e-03  -2.40527772e-03  -2.40527772e-03  6.27547767e-04  2.18820848e-05  2.26126245e-05  2.26126217e-05  2.26126217e-05  6.04935145e-04  7.30536925e-07  2.71471951e-12  1.23599048e-16  3.62273739e-03  3.74909240e-03  3.71758478e-03  3.71759135e-03  3.71759135e-03  3.71759135e-03  1.26355011e-04  9.48473946e-05  9.48539623e-05  9.48539623e-05  9.48539623e-05  3.15010483e-05  6.56776286e-09  1.76941795e-16  5.07406617e-17  -1.06957849e-03  -1.13138557e-03  -1.09995543e-03  -1.09995546e-03  -1.09995546e-03  -1.09995546e-03  6.18070791e-05  3.03769383e-05  3.03769696e-05  3.03769696e-05  3.03769696e-05  3.14301096e-05  3.12826817e-11  1.95156391e-17  4.33680869e-19
1.00896750e-01  -1.49590765e-07  1.57519282e-17  -6.32851702e-18  1.54887375e-18  3.52071989e-18  3.67246395e-18  1.49590765e-07  1.49590765e-07  1.49590765e-07  1.49590765e-07  1.49590765e-07  1.20794643e-17  1.00009810e-17  2.12359020e-18  1.51744064e-19  -9.88316320e-08  -1.77380472e-17  6.96923144e-18  -1.34136474e-18  -3.24635013e-18  -3.61178692e-18  9.88316320e-08  9.88316320e-08  9.88316320e-08  9.88316320e-08  9.88316320e-08  1.41262603e-17  1.05810184e-17  2.27042218e-18  3.65436797e-19  -2.38517383e-03  -3.01328294e-03  -2.40699955e-03  -2.40773083e-03  -2.40773083e-03  -2.40773083e-03  6.28109111e-04  2.18257185e-05  2.25570032e-05  2.25570005e-05  2.25570005e-05  6.05552111e-04  7.31281990e-07  2.71748813e-12  1.23599048e-16  3.62653684e-03  3.75291605e-03  3.72137630e-03  3.72138287e-03  3.72138287e-03  3.72138287e-03  1.26379213e-04  9.48394629e-05  9.48460373e-05  9.48460373e-05  9.48460373e-05  3.15331758e-05  6.57446123e-09  1.76941795e-16  5.07406617e-17  -1.07070226e-03  -1.13253945e-03  -1.10107726e-03  -1.10107729e-03  -1.10107729e-03  -1.10107729e-03  6.18371933e-05  3.03749972e-05  3.03750285e-05  3.03750285e-05  3.03750285e-05  3.14621647e-05  3.13145866e-11  1.97324795e-17  4.33680869e-19
1.03138900e-01  -1.50540733e-07  1.57679607e-17  -6.33495826e-18  1.55045021e-18  3.52430331e-18  3.67620182e-18  1.50540733e-07  1.50540733e-07  1.50540733e-07  1.50540733e-07  1.50540733e-07  1.20917589e-17  1.00111601e-17  2.12575161e-18  1.51898511e-19  -1.00206476e-07  -1.77561012e-17  6.97632480e-18  -1.34273000e-18  -3.24965430e-18  -3.61546304e-18  1.00206476e-07  1.00206476e-07  1.00206476e-07  1.00206476e-07  1.00206476e-07  1.41406381e-17  1.05917878e-17  2.27273304e-18  3.65808742e-19  -2.38768058e-03  -3.01634989e-03  -2.40944942e-03  -2.41018145e-03  -2.41018144e-03  -2.41018144e-03  6.28669313e-04  2.17688389e-05  2.25008680e-05  2.25008652e-05  2.25008652e-05  6.06168448e-04  7.32026297e-07  2.72025414e-12  1.24032729e-16  3.63033277e-03  3.75673581e-03  3.72516396e-03  3.72517054e-03  3.72517054e-03  3.72517054e-03  1.26403042e-04  9.48311905e-05  9.48377716e-05  9.48377716e-05  9.48377716e-05  3.15652706e-05  6.58115279e-09  1.76941795e-16  5.07406617e-17  -1.07182497e-03  -1.13369216e-03  -1.10219795e-03  -1.10219798e-03  -1.10219798e-03  -1.10219798e-03  6.18671947e-05  3.03729761e-05  3.03730074e-05  3.03730074e-05  3.03730074e-05  3.14941873e-05  3.13464591e-11  1.95156391e-17  4.33680869e-19
1.05381050e-01  -1.51349818e-07  1.57839769e-17  -6.34139295e-18  1.55202507e-18  3.52788310e-18  3.67993590e-18  1.51349818e-07  1.51349818e-07  1.51349818e-07  1.51349818e-07  1.51349818e-07  1.21040410e-17  1.00213288e-17  2.12791083e-18  1.52052801e-19  -1.01506310e-07  -1.77741368e-17  6.98341095e-18  -1.34409387e-18  -3.25295511e-18  -3.61913542e-18  1.01506310e-07  1.01506310e-07  1.01506310e-07  1.01506310e-07  1.01506310e-07  1.41550014e-17  1.06025464e-17  2.27504156e-18  3.66180310e-19  -2.39018534e-03  -3.01941373e-03  -2.41189680e-03  -2.41262957e-03  -2.41262957e-03  -2.41262957e-03  6.29228385e-04  2.17114551e-05  2.24442277e-05  2.24442250e-05  2.24442250e-05  6.06784160e-04  7.32769848e-07  2.72301712e-12  1.24032729e-16  3.63412519e-03  3.76055169e-03  3.72894777e-03  3.72895436e-03  3.72895436e-03  3.72895436e-03  1.26426495e-04  9.48225744e-05  9.48291622e-05  9.48291622e-05  9.48291622e-05  3.15973328e-05  6.58783755e-09  1.77375475e-16  5.11743425e-17  -1.07294662e-03  -1.13484370e-03  -1.10331750e-03  -1.10331753e-03  -1.10331753e-03  -1.10331753e-03  6.18970857e-05  3.03708770e-05  3.03709084e-05  3.03709084e-05  3.03709084e-05  3.15261773e-05  3.13782988e-11  1.95156391e-17  4.33680869e-19
1.07623200e-01  -1.52015727e-07  1.57999769e-17  -6.34782112e-18  1.55359834e-18  3.53145926e-18  3.68366619e-18  1.52015727e-07  1.52015727e-07  1.52015727e-07  1.52015727e-07  1.52015727e-07  1.21163107e-17  1.00314873e-17  2.13006786e-18  1.52206934e-19  -1.02728763e-07  -1.77921542e-17  6.99048993e-18  -1.34545635e-18  -3.25625258e-18  -3.62280408e-18  1.02728763e-07  1.02728763e-07  1.02728763e-07  1.02728763e-07  1.02728763e-07  1.41693501e-17  1.06132940e-17  2.27734773e-18  3.66551501e-19  -2.39268812e-03  -3.02247446e-03  -2.41434170e-03  -2.41507522e-03  -2.41507521e-03  -2.41507521e-03  6.29786336e-04  2.16535760e-05  2.23870914e-05  2.23870887e-05  2.23870887e-05  6.07399247e-04  7.33512645e-07  2.72577750e-12  1.24032729e-16  3.63791413e-03  3.76436370e-03  3.73272774e-03  3.73273434e-03  3.73273434e-03  3.73273434e-03  1.26449569e-04  9.48136117e-05  9.48202062e-05  9.48202062e-05  9.48202062e-05  3.16293625e-05  6.59451554e-09  1.77809156e-16  5.11743425e-17  -1.07406721e-03  -1.13599408e-03  -1.10443591e-03  -1.10443594e-03  -1.10443594e-03  -1.10443594e-03  6.19268684e-05  3.03687021e-05  3.03687335e-05  3.03687335e-05  3.03687335e-05  3.15581349e-05  3.14101065e-11  1.97324795e-17  4.33680869e-19
1.09865350e-01  -1.52536173e-07  1.58159607e-17  -6.35424278e-18  1.55517001e-18  3.53503180e-18  3.68739271e-18  1.52536173e-07  1.52536173e-07  1.52536173e-07  1.52536173e-07  1.52536173e-07  1.21285679e-17  1.00416355e-17  2.13222271e-18  1.52360912e-19  -1.03871475e-07  -1.78101533e-17  6.99756174e-18  -1.34681746e-18  -3.25954671e-18  -3.62646903e-18  1.03871475e-07  1.03871475e-07  1.03871475e-07  1.03871475e-07  1.03871475e-07  1.41836843e-17  1.06240308e-17  2.27965157e-18  3.66922317e-19  -2.39518892e-03  -3.02553209e-03  -2.41678413e-03  -2.41751839e-03  -2.41751838e-03  -2.41751838e-03  6.30343177e-04  2.15952105e-05  2.23294680e-05  2.23294652e-05  2.23294652e-05  6.08013712e-04  7.34254691e-07  2.72853441e-12  1.24466409e-16  3.64169959e-03  3.76817185e-03  3.73650389e-03  3.73651049e-03  3.73651049e-03  3.73651049e-03  1.26472260e-04  9.48042993e-05  9.48109005e-05  9.48109005e-05  9.48109005e-05  3.16613598e-05  6.60118677e-09  1.77809156e-16  5.11743425e-17  -1.07518674e-03  -1.13714329e-03  -1.10555320e-03  -1.10555323e-03  -1.10555323e-03  -1.10555323e-03  6.19565449e-05  3.03664533e-05  3.03664848e-05  3.03664848e-05  3.03664848e-05  3.15900601e-05  3.14418821e-11  1.97324795e-17  4.33680869e-19
1.12107500e-01  -1.52908880e-07  1.58319283e-17  -6.36065796e-18  1.55674009e-18  3.53860073e-18  3.69111547e-18  1.52908880e-07  1.52908880e-07  1.52908880e-07  1.52908880e-07  1.52908880e-07  1.21408128e-17  1.00517734e-17  2.13437538e-18  1.52514734e-19  -1.04932098e-07  -1.78281343e-17  7.00462641e-18  -1.34817720e-18  -3.26283752e-18  -3.63013028e-18  1.04932098e-07  1.04932098e-07  1.04932098e-07  1.04932098e-07  1.04932098e-07  1.41980040e-17  1.06347567e-17  2.28195308e-18  3.67292758e-19  -2.39768772e-03  -3.02858664e-03  -2.41922409e-03  -2.41995909e-03  -2.41995909e-03  -2.41995909e-03  6.30898920e-04  2.15363675e-05  2.22713663e-05  2.22713635e-05  2.22713635e-05  6.08627557e-04  7.34995987e-07  2.73128959e-12  1.24466409e-16  3.64548160e-03  3.77197616e-03  3.74027623e-03  3.74028284e-03  3.74028284e-03  3.74028284e-03  1.26494567e-04  9.47946343e-05  9.48012422e-05  9.48012422e-05  9.48012422e-05  3.16933248e-05  6.60785126e-09  1.78242837e-16  5.11743425e-17  -1.07630522e-03  -1.13829134e-03  -1.10666935e-03  -1.10666938e-03  -1.10666938e-03  -1.10666938e-03  6.19861174e-05  3.03641328e-05  3.03641643e-05  3.03641643e-05  3.03641643e-05  3.16219531e-05  3.14736254e-11  1.97324795e-17  6.50521303e-19
1.14349650e-01  -1.53131580e-07  1.58478799e-17  -6.36706668e-18  1.55830859e-18  3.54216607e-18  3.69483447e-18  1.53131580e-07  1.53131580e-07  1.53131580e-07  1.53131580e-07  1.53131580e-07  1.21530454e-17  1.00619012e-17  2.13652588e-18  1.52668401e-19  -1.05908292e-07  -1.78460971e-17  7.01168396e-18  -1.34953556e-18  -3.26612501e-18  -3.63378784e-18  1.05908292e-07  1.05908292e-07  1.05908292e-07  1.05908292e-07  1.05908292e-07  1.42123093e-17  1.06454718e-17  2.28425228e-18  3.67662826e-19  -2.40018454e-03  -3.03163811e-03  -2.42166159e-03  -2.42239733e-03  -2.42239733e-03  -2.42239733e-03  6.31453576e-04  2.14770558e-05  2.22127951e-05  2.22127924e-05  2.22127924e-05  6.09240783e-04  7.35736537e-07  2.73404129e-12  1.24900090e-16  3.64926015e-03  3.77577664e-03  3.74404477e-03  3.74405138e-03  3.74405138e-03  3.74405138e-03  1.26516486e-04  9.47846138e-05  9.47912283e-05  9.47912283e-05  9.47912283e-05  3.17252576e-05  6.61450904e-09  1.78242837e-16  5.11743425e-17  -1.07742264e-03  -1.13943823e-03  -1.10778438e-03  -1.10778441e-03  -1.10778441e-03  -1.10778441e-03  6.20155881e-05  3.03617426e-05  3.03617741e-05  3.03617741e-05  3.03617741e-05  3.16538140e-05  3.15053370e-11  1.97324795e-17  4.33680869e-19
1.16591800e-01  -1.53202015e-07  1.58638154e-17  -6.37346896e-18  1.55987552e-18  3.54572783e-18  3.69854974e-18  1.53202015e-07  1.53202015e-07  1.53202015e-07  1.53202015e-07  1.53202015e-07  1.21652656e-17  1.00720187e-17  2.13867422e-18  1.52821914e-19  -1.06797732e-07  -1.78640419e-17  7.01873442e-18  -1.35089256e-18  -3.26940920e-18  -3.63744172e-18  1.06797732e-07  1.06797732e-07  1.06797732e-07  1.06797732e-07  1.06797732e-07  1.42266002e-17  1.06561761e-17  2.28654916e-18  3.68032522e-19  -2.40267936e-03  -3.03468652e-03  -2.42409665e-03  -2.42483313e-03  -2.42483312e-03  -2.42483312e-03  6.32007153e-04  2.14172842e-05  2.21537633e-05  2.21537605e-05  2.21537605e-05  6.09853393e-04  7.36476342e-07  2.73679083e-12  1.24466409e-16  3.65303528e-03  3.77957330e-03  3.74780952e-03  3.74781614e-03  3.74781614e-03  3.74781614e-03  1.26538014e-04  9.47742348e-05  9.47808560e-05  9.47808560e-05  9.47808560e-05  3.17571583e-05  6.62116013e-09  1.78242837e-16  5.16080234e-17  -1.07853901e-03  -1.14058397e-03  -1.10889829e-03  -1.10889832e-03  -1.10889832e-03  -1.10889832e-03  6.20449591e-05  3.03592847e-05  3.03593162e-05  3.03593162e-05  3.03593162e-05  3.16856429e-05  3.15370165e-11  1.97324795e-17  4.33680869e-19
1.18833950e-01  -1.53117935e-07  1.58797349e-17  -6.37986481e-18  1.56144087e-18  3.54928600e-18  3.70226128e-18  1.53117935e-07  1.53117935e-07  1.53117935e-07  1.53117935e-07  1.53117935e-07  1.21774736e-17  1.00821261e-17  2.14082040e-18  1.52975272e-19  -1.07598101e-07  -1.78819687e-17  7.02577780e-18  -1.35224819e-18  -3.27269009e-18  -3.64109193e-18  1.07598101e-07  1.07598101e-07  1.07598101e-07  1.07598101e-07  1.07598101e-07  1.42408767e-17  1.06668697e-17  2.28884374e-18  3.68401847e-19  -2.40517219e-03  -3.03773186e-03  -2.42652926e-03  -2.42726647e-03  -2.42726647e-03  -2.42726647e-03  6.32559665e-04  2.13570613e-05  2.20942795e-05  2.20942767e-05  2.20942767e-05  6.10465388e-04  7.37215404e-07  2.73953733e-12  1.24466409e-16  3.65680699e-03  3.78336614e-03  3.75157049e-03  3.75157711e-03  3.75157711e-03  3.75157711e-03  1.26559149e-04  9.47634945e-05  9.47701223e-05  9.47701223e-05  9.47701223e-05  3.17890270e-05  6.62780454e-09  1.78676518e-16  5.16080234e-17  -1.07965432e-03  -1.14172856e-03  -1.11001108e-03  -1.11001112e-03  -1.11001112e-03  -1.11001112e-03  6.20742324e-05  3.03567611e-05  3.03567926e-05  3.03567926e-05  3.03567926e-05  3.17174398e-05  3.15686641e-11  1.97324795e-17  4.33680869e-19
1.21076100e-01  -1.52877098e-07  1.58956385e-17  -6.38625425e-18  1.56300466e-18  3.55284062e-18  3.70596910e-18  1.52877098e-07  1.52877098e-07  1.52877098e-07  1.52877098e-07  1.52877098e-07  1.21896694e-17  1.00922233e-17  2.14296444e-18  1.53128477e-19  -1.08307093e-07  -1.78998775e-17  7.03281412e-18  -1.35360247e-18  -3.27596769e-18  -3.64473849e-18  1.08307093e-07  1.08307093e-07  1.08307093e-07  1.08307093e-07  1.08307093e-07  1.42551390e-17  1.06775526e-17  2.29113602e-18  3.68770802e-19  -2.40766303e-03  -3.04077415e-03  -2.42895943e-03  -2.42969738e-03  -2.42969738e-03  -2.42969738e-03  6.33111119e-04  2.12963959e-05  2.20343524e-05  2.20343496e-05  2.20343496e-05  6.11076770e-04  7.37953727e-07  2.74228079e-12  1.24900090e-16  3.66057530e-03  3.78715519e-03  3.75532769e-03  3.75533433e-03  3.75533433e-03  3.75533433e-03  1.26579888e-04  9.47523899e-05  9.47590243e-05  9.47590243e-05  9.47590243e-05  3.18208637e-05  6.63444229e-09  1.78676518e-16  5.11743425e-17  -1.08076859e-03  -1.14287200e-03  -1.11112276e-03  -1.11112279e-03  -1.11112279e-03  -1.11112279e-03  6.21034103e-05  3.03541739e-05  3.03542055e-05  3.03542055e-05  3.03542055e-05  3.17492049e-05  3.16002803e-11  1.97324795e-17  4.33680869e-19
1.23318250e-01  -1.52477272e-07  1.59115261e-17  -6.39263731e-18  1.56456688e-18  3.55639168e-18  3.70967321e-18  1.52477272e-07  1.52477272e-07  1.52477272e-07  1.52477272e-07  1.52477272e-07  1.22018529e-17  1.01023105e-17  2.14510633e-18  1.53281529e-19  -1.08922413e-07  -1.79177684e-17  7.03984342e-18  -1.35495540e-18  -3.27924202e-18  -3.64838141e-18  1.08922413e-07  1.08922413e-07  1.08922413e-07  1.08922413e-07  1.08922413e-07  1.42693870e-17  1.06882248e-17  2.29342601e-18  3.69139388e-19  -2.41015188e-03  -3.04381340e-03  -2.43138717e-03  -2.43212587e-03  -2.43212586e-03  -2.43212586e-03  6.33661529e-04  2.12352965e-05  2.19739905e-05  2.19739878e-05  2.19739878e-05  6.11687541e-04  7.38691311e-07  2.74502122e-12  1.25333771e-16  3.66434022e-03  3.79094045e-03  3.75908114e-03  3.75908778e-03  3.75908778e-03  3.75908778e-03  1.26600228e-04  9.47409181e-05  9.47475592e-05  9.47475592e-05  9.47475592e-05  3.18526687e-05  6.64107342e-09  1.79110199e-16  5.16080234e-17  -1.08188180e-03  -1.14401430e-03  -1.11223333e-03  -1.11223336e-03  -1.11223336e-03  -1.11223336e-03  6.21324948e-05  3.03515250e-05  3.03515566e-05  3.03515566e-05  3.03515566e-05  3.17809382e-05  3.16318647e-11  1.97324795e-17  4.33680869e-19
1.25560400e-01  -1.51916233e-07  1.59273980e-17  -6.39901400e-18  1.56612754e-18  3.55993920e-18  3.71337363e-18  1.51916233e-07  1.51916233e-07  1.51916233e-07  1.51916233e-07  1.51916233e-07  1.22140244e-17  1.01123876e-17  2.14724609e-18  1.53434428e-19  -1.09441778e-07  -1.79356415e-17  7.04686570e-18  -1.35630697e-18  -3.28251308e-18  -3.65202069e-18  1.09441778e-07  1.09441778e-07  1.09441778e-07  1.09441778e-07  1.09441778e-07  1.42836208e-17  1.06988864e-17  2.29571372e-18  3.69507607e-19  -2.41263872e-03  -3.04684962e-03  -2.43381249e-03  -2.43455192e-03  -2.43455192e-03  -2.43455192e-03  6.34210902e-04  2.11737717e-05  2.19132026e-05  2.19131998e-05  2.19131998e-05  6.12297702e-04  7.39428160e-07  2.74775992e-12  1.24900090e-16  3.66810177e-03  3.79472193e-03  3.76283084e-03  3.76283749e-03  3.76283749e-03  3.76283749e-03  1.26620166e-04  9.47290763e-05  9.47357240e-05  9.47357240e-05  9.47357240e-05  3.18844419e-05  6.64769792e-09  1.79110199e-16  5.16080234e-17  -1.08299397e-03  -1.14515546e-03  -1.11334279e-03  -1.11334282e-03  -1.11334282e-03  -1.11334282e-03  6.21614880e-05  3.03488165e-05  3.03488482e-05  3.03488482e-05  3.03488482e-05  3.18126398e-05  3.16634178e-11  1.97324795e-17  4.33680869e-19
1.27802550e-01  -1.51191765e-07  1.59432540e-17  -6.40538434e-18  1.56768666e-18  3.56348319e-18  3.71707037e-18  1.51191765e-07  1.51191765e-07  1.51191765e-07  1.51191765e-07  1.51191765e-07  1.22261837e-17  1.01224547e-17  2.14938371e-18  1.53587175e-19  -1.09862915e-07  -1.79534968e-17  7.05388099e-18  -1.35765720e-18  -3.28578089e-18  -3.65565635e-18  1.09862915e-07  1.09862915e-07  1.09862915e-07  1.09862915e-07  1.09862915e-07  1.42978404e-17  1.07095373e-17  2.29799914e-18  3.69875459e-19  -2.41512357e-03  -3.04988282e-03  -2.43623540e-03  -2.43697557e-03  -2.43697557e-03  -2.43697557e-03  6.34759251e-04  2.11118300e-05  2.18519970e-05  2.18519943e-05  2.18519943e-05  6.12907257e-04  7.40164275e-07  2.75049514e-12  1.25333771e-16  3.67185995e-03  3.79849965e-03  3.76657681e-03  3.76658347e-03  3.76658347e-03  3.76658347e-03  1.26639700e-04  9.47168617e-05  9.47235160e-05  9.47235160e-05  9.47235160e-05  3.19161835e-05  6.65431584e-09  1.79110199e-16  5.16080234e-17  -1.08410509e-03  -1.14629548e-03  -1.11445114e-03  -1.11445117e-03  -1.11445117e-03  -1.11445117e-03  6.21903919e-05  3.03460503e-05  3.03460820e-05  3.03460820e-05  3.03460820e-05  3.18443099e-05  3.16949392e-11  1.99493200e-17  6.50521303e-19
1.30044700e-01  -1.50301663e-07  1.59590943e-17  -6.41174836e-18  1.56924422e-18  3.56702366e-18  3.72076343e-18  1.50301663e-07  1.50301663e-07  1.50301663e-07  1.50301663e-07  1.50301663e-07  1.22383309e-17  1.01325118e-17  2.15151921e-18  1.53739771e-19  -1.10183559e-07  -1.79713343e-17  7.06088931e-18  -1.35900609e-18  -3.28904545e-18  -3.65928839e-18  1.10183559e-07  1.10183559e-07  1.10183559e-07  1.10183559e-07  1.10183559e-07  1.43120459e-17  1.07201777e-17  2.30028230e-18  3.70242945e-19  -2.41760642e-03  -3.05291301e-03  -2.43865590e-03  -2.43939680e-03  -2.43939680e-03  -2.43939680e-03  6.35306585e-04  2.10494799e-05  2.17903823e-05  2.17903795e-05  2.17903795e-05  6.13516205e-04  7.40899658e-07  2.75322777e-12  1.25333771e-16  3.67561479e-03  3.80227362e-03  3.77031906e-03  3.77032572e-03  3.77032572e-03  3.77032572e-03  1.26658826e-04  9.47042714e-05  9.47109324e-05  9.47109324e-05  9.47109324e-05  3.19478935e-05  6.66092717e-09  1.79543880e-16  5.20417043e-17  -1.08521517e-03  -1.14743438e-03  -1.11555840e-03  -1.11555843e-03  -1.11555843e-03  -1.11555843e-03  6.22192088e-05  3.03432285e-05  3.03432602e-05  3.03432602e-05  3.03432602e-05  3.18759486e-05  3.17264294e-11  1.99493200e-17  4.33680869e-19
1.32286850e-01  -1.49243729e-07  1.59749189e-17  -6.41810606e-18  1.57080023e-18  3.57056062e-18  3.72445283e-18  1.49243729e-07  1.49243729e-07  1.49243729e-07  1.49243729e-07  1.49243729e-07  1.22504660e-17  1.01425589e-17  2.15365260e-18  1.53892214e-19  -1.10401460e-07  -1.79891541e-17  7.06789069e-18  -1.36035364e-18  -3.29230677e-18  -3.66291684e-18  1.10401460e-07  1.10401460e-07  1.10401460e-07  1.10401460e-07  1.10401460e-07  1.43262373e-17  1.07308075e-17  2.30256319e-18  3.70610067e-19  -2.42008727e-03  -3.05594019e-03  -2.44107400e-03  -2.44181564e-03  -2.44181564e-03  -2.44181564e-03  6.35852914e-04  2.09867298e-05  2.17283668e-05  2.17283641e-05  2.17283641e-05  6.14124550e-04  7.41634313e-07  2.75595822e-12  1.25333771e-16  3.67936630e-03  3.80604384e-03  3.77405760e-03  3.77406427e-03  3.77406427e-03  3.77406427e-03  1.26677542e-04  9.46913026e-05  9.46979702e-05  9.46979702e-05  9.46979702e-05  3.19795721e-05  6.66753195e-09  1.79543880e-16  5.16080234e-17  -1.08632420e-03  -1.14857214e-03  -1.11666455e-03  -1.11666458e-03  -1.11666458e-03  -1.11666458e-03  6.22479405e-05  3.03403529e-05  3.03403847e-05  3.03403847e-05  3.03403847e-05  3.19075558e-05  3.17578884e-11  1.97324795e-17  4.33680869e-19
1.34529000e-01  -1.48015774e-07  1.59907278e-17  -6.42445747e-18  1.57235471e-18  3.57409407e-18  3.72813858e-18  1.48015774e-07  1.48015774e-07  1.48015774e-07  1.48015774e-07  1.48015774e-07  1.22625892e-17  1.01525961e-17  2.15578387e-18  1.54044507e-19  -1.10514374e-07  -1.80069564e-17  7.07488513e-18  -1.36169986e-18  -3.29556486e-18  -3.66654169e-18  1.10514374e-07  1.10514374e-07  1.10514374e-07  1.10514374e-07  1.10514374e-07  1.43404147e-17  1.07414268e-17  2.30484183e-18  3.70976826e-19  -2.42256612e-03  -3.05896437e-03  -2.44348971e-03  -2.44423208e-03  -2.44423208e-03  -2.44423208e-03  6.36398249e-04  2.09235880e-05  2.16659590e-05  2.16659563e-05  2.16659563e-05  6.14732293e-04  7.42368241e-07  2.75868521e-12  1.25767452e-16  3.68311449e-03  3.80981033e-03  3.77779244e-03  3.77779912e-03  3.77779912e-03  3.77779912e-03  1.26695846e-04  9.46779525e-05  9.46846267e-05  9.46846267e-05  9.46846267e-05  3.20112194e-05  6.67413020e-09  1.79543880e-16  5.16080234e-17  -1.08743219e-03  -1.14970878e-03  -1.11776961e-03  -1.11776964e-03  -1.11776964e-03  -1.11776964e-03  6.22765892e-05  3.03374256e-05  3.03374574e-05  3.03374574e-05  3.03374574e-05  3.19391318e-05  3.17893162e-11  1.99493200e-17  4.33680869e-19
1.36771150e-01  -1.46615616e-07  1.60065211e-17  -6.43080261e-18  1.57390765e-18  3.57762404e-18  3.73182069e-18  1.46615616e-07  1.46615616e-07  1.46615616e-07  1.46615616e-07  1.46615616e-07  1.22747004e-17  1.01626233e-17  2.15791304e-18  1.54196650e-19  -1.10520070e-07  -1.80247410e-17  7.08187267e-18  -1.36304475e-18  -3.29881974e-18  -3.67016296e-18  1.10520070e-07  1.10520070e-07  1.10520070e-07  1.10520070e-07  1.10520070e-07  1.43545780e-17  1.07520356e-17  2.30711822e-18  3.71343223e-19  -2.42504297e-03  -3.06198557e-03  -2.44590303e-03  -2.44664614e-03  -2.44664613e-03  -2.44664613e-03  6.36942600e-04  2.08600630e-05  2.16031672e-05  2.16031644e-05  2.16031644e-05  6.15339436e-04  7.43101443e-07  2.76140959e-12  1.25767452e-16  3.68685937e-03  3.81357311e-03  3.78152359e-03  3.78153027e-03  3.78153027e-03  3.78153027e-03  1.26713734e-04  9.46642184e-05  9.46708991e-05  9.46708991e-05  9.46708991e-05  3.20428354e-05  6.68072193e-09  1.79977561e-16  5.20417043e-17  -1.08853913e-03  -1.15084429e-03  -1.11887358e-03  -1.11887361e-03  -1.11887361e-03  -1.11887361e-03  6.23051569e-05  3.03344484e-05  3.03344803e-05  3.03344803e-05  3.03344803e-05  3.19706766e-05  3.18207132e-11  1.97324795e-17  4.33680869e-19
1.39013300e-01  -1.45041085e-07  1.60222988e-17  -6.43714149e-18  1.57545906e-18  3.58115053e-18  3.73549917e-18  1.45041085e-07  1.45041085e-07  1.45041085e-07  1.45041085e-07  1.45041085e-07  1.22867996e-17  1.01726407e-17  2.16004011e-18  1.54348643e-19  -1.10416328e-07  -1.80425081e-17  7.08885332e-18  -1.36438831e-18  -3.30207141e-18  -3.67378067e-18  1.10416328e-07  1.10416328e-07  1.10416328e-07  1.10416328e-07  1.10416328e-07  1.43687274e-17  1.07626340e-17  2.30939236e-18  3.71709258e-19  -2.42751781e-03  -3.06500379e-03  -2.44831397e-03  -2.44905781e-03  -2.44905781e-03  -2.44905781e-03  6.37485977e-04  2.07961629e-05  2.15399996e-05  2.15399968e-05  2.15399968e-05  6.15945980e-04  7.43833923e-07  2.76413181e-12  1.25767452e-16  3.69060097e-03  3.81733217e-03  3.78525106e-03  3.78525775e-03  3.78525775e-03  3.78525775e-03  1.26731205e-04  9.46500973e-05  9.46567846e-05  9.46567846e-05  9.46567846e-05  3.20744202e-05  6.68730716e-09  1.79977561e-16  5.16080234e-17  -1.08964504e-03  -1.15197868e-03  -1.11997646e-03  -1.11997649e-03  -1.11997649e-03  -1.11997649e-03  6.23336456e-05  3.03314234e-05  3.03314553e-05  3.03314553e-05  3.03314553e-05  3.20021903e-05  3.18520789e-11  1.99493200e-17  4.33680869e-19
1.41255450e-01  -1.43290015e-07  1.60380610e-17  -6.44347414e-18  1.57700895e-18  3.58467355e-18  3.73917403e-18  1.43290015e-07  1.43290015e-07  1.43290015e-07  1.43290015e-07  1.43290015e-07  1.22988870e-17  1.01826482e-17  2.16216508e-18  1.54500486e-19  -1.10200935e-07  -1.80602577e-17  7.09582710e-18  -1.36573055e-18  -3.30531988e-18  -3.67739481e-18  1.10200935e-07  1.10200935e-07  1.10200935e-07  1.10200935e-07  1.10200935e-07  1.43828629e-17  1.07732219e-17  2.31166426e-18  3.72074934e-19  -2.42999065e-03  -3.06801904e-03  -2.45072254e-03  -2.45146711e-03  -2.45146711e-03  -2.45146711e-03  6.38028389e-04  2.07318960e-05  2.14764644e-05  2.14764617e-05  2.14764617e-05  6.16551927e-04  7.44565683e-07  2.76685098e-12  1.25767452e-16  3.69433928e-03  3.82108754e-03  3.78897487e-03  3.78898156e-03  3.78898156e-03  3.78898156e-03  1.26748255e-04  9.46355867e-05  9.46422806e-05  9.46422806e-05  9.46422806e-05  3.21059740e-05  6.69388591e-09  1.80411242e-16  5.20417043e-17  -1.09074991e-03  -1.15311196e-03  -1.12107826e-03  -1.12107829e-03  -1.12107829e-03  -1.12107829e-03  6.23620574e-05  3.03283525e-05  3.03283844e-05  3.03283844e-05  3.03283844e-05  3.20336730e-05  3.18834141e-11  1.99493200e-17  4.33680869e-19
1.43497600e-01  -1.41360254e-07  1.60538078e-17  -6.44980057e-18  1.57855731e-18  3.58819310e-18  3.74284528e-18  1.41360254e-07  1.41360254e-07  1.41360254e-07  1.41360254e-07  1.41360254e-07  1.23109625e-17  1.01926459e-17  2.16428797e-18  1.54652180e-19  -1.09871691e-07  -1.80779899e-17  7.10279403e-18  -1.36707147e-18  -3.30856516e-18  -3.68100541e-18  1.09871691e-07  1.09871691e-07  1.09871691e-07  1.09871691e-07  1.09871691e-07  1.43969845e-17  1.07837994e-17  2.31393393e-18  3.72440250e-19  -2.43246148e-03  -3.07103133e-03  -2.45312875e-03  -2.45387405e-03  -2.45387405e-03  -2.45387405e-03  6.38569847e-04  2.06672705e-05  2.14125700e-05  2.14125672e-05  2.14125672e-05  6.17157280e-04  7.45296723e-07  2.76956756e-12  1.26201133e-16  3.69807434e-03  3.82483922e-03  3.79269502e-03  3.79270172e-03  3.79270172e-03  3.79270172e-03  1.26764881e-04  9.46206837e-05  9.46273841e-05  9.46273841e-05  9.46273841e-05  3.21374967e-05  6.70045821e-09  1.80411242e-16  5.20417043e-17  -1.09185373e-03  -1.15424413e-03  -1.12217897e-03  -1.12217900e-03  -1.12217900e-03  -1.12217900e-03  6.23903942e-05  3.03252375e-05  3.03252694e-05  3.03252694e-05  3.03252694e-05  3.20651248e-05  3.19147183e-11  1.99493200e-17  6.50521303e-19
1.45739750e-01  -1.39249653e-07  1.60695391e-17  -6.45612080e-18  1.58010416e-18  3.59170921e-18  3.74651294e-18  1.39249653e-07  1.39249653e-07  1.39249653e-07  1.39249653e-07  1.39249653e-07  1.23230261e-17  1.02026337e-17  2.16640878e-18  1.54803725e-19  -1.09426407e-07  -1.80957048e-17  7.10975414e-18  -1.36841108e-18  -3.31180726e-18  -3.68461246e-18  1.09426407e-07  1.09426407e-07  1.09426407e-07  1.09426407e-07  1.09426407e-07  1.44110923e-17  1.07943666e-17  2.31620138e-18  3.72805208e-19  -2.43493030e-03  -3.07404066e-03  -2.45553260e-03  -2.45627863e-03  -2.45627863e-03  -2.45627863e-03  6.39110360e-04  2.06022944e-05  2.13483243e-05  2.13483215e-05  2.13483215e-05  6.17762039e-04  7.46027048e-07  2.77228154e-12  1.26201133e-16  3.70180614e-03  3.82858722e-03  3.79641152e-03  3.79641823e-03  3.79641823e-03  3.79641823e-03  1.26781081e-04  9.46053856e-05  9.46120926e-05  9.46120926e-05  9.46120926e-05  3.21689886e-05  6.70702406e-09  1.80411242e-16  5.16080234e-17  -1.09295653e-03  -1.15537519e-03  -1.12327861e-03  -1.12327864e-03  -1.12327864e-03  -1.12327864e-03  6.24186581e-05  3.03220804e-05  3.03221123e-05  3.03221123e-05  3.03221123e-05  3.20965458e-05  3.19459919e-11  1.99493200e-17  4.33680869e-19
1.47981900e-01  -1.36956075e-07  1.60852550e-17  -6.46243485e-18  1.58164949e-18  3.59522189e-18  3.75017701e-18  1.36956075e-07  1.36956075e-07  1.36956075e-07  1.36956075e-07  1.36956075e-07  1.23350780e-17  1.02126119e-17  2.16852752e-18  1.54955122e-19  -1.08862900e-07  -1.81134022e-17  7.11670744e-18  -1.36974938e-18  -3.31504619e-18  -3.68821600e-18  1.08862900e-07  1.08862900e-07  1.08862900e-07  1.08862900e-07  1.08862900e-07  1.44251863e-17  1.08049234e-17  2.31846662e-18  3.73169810e-19  -2.43739712e-03  -3.07704706e-03  -2.45793410e-03  -2.45868085e-03  -2.45868085e-03  -2.45868085e-03  6.39649939e-04  2.05369760e-05  2.12837355e-05  2.12837327e-05  2.12837327e-05  6.18366207e-04  7.46756658e-07  2.77499291e-12  1.26201133e-16  3.70553470e-03  3.83233156e-03  3.80012439e-03  3.80013111e-03  3.80013111e-03  3.80013111e-03  1.26796853e-04  9.45896897e-05  9.45964033e-05  9.45964033e-05  9.45964033e-05  3.22004497e-05  6.71358349e-09  1.80844922e-16  5.20417043e-17  -1.09405828e-03  -1.15650514e-03  -1.12437717e-03  -1.12437720e-03  -1.12437720e-03  -1.12437720e-03  6.24468511e-05  3.03188831e-05  3.03189151e-05  3.03189151e-05  3.03189151e-05  3.21279360e-05  3.19772351e-11  1.99493200e-17  4.33680869e-19
1.50224050e-01  -1.34477391e-07  1.61009556e-17  -6.46874274e-18  1.58319331e-18  3.59873113e-18  3.75383750e-18  1.34477391e-07  1.34477391e-07  1.34477391e-07  1.34477391e-07  1.34477391e-07  1.23471181e-17  1.02225802e-17  2.17064419e-18  1.55106372e-19  -1.08179001e-07  -1.81310825e-17  7.12365395e-18  -1.37108637e-18  -3.31828195e-18  -3.69181601e-18  1.08179001e-07  1.08179001e-07  1.08179001e-07  1.08179001e-07  1.08179001e-07  1.44392665e-17  1.08154700e-17  2.32072964e-18  3.73534055e-19  -2.43986193e-03  -3.08005052e-03  -2.46033325e-03  -2.46108074e-03  -2.46108073e-03  -2.46108073e-03  6.40188594e-04  2.04713232e-05  2.12188116e-05  2.12188088e-05  2.12188088e-05  6.18969785e-04  7.47485556e-07  2.77770168e-12  1.26201133e-16  3.70926004e-03  3.83607224e-03  3.80383364e-03  3.80384036e-03  3.80384036e-03  3.80384036e-03  1.26812194e-04  9.45735934e-05  9.45803135e-05  9.45803135e-05  9.45803135e-05  3.22318801e-05  6.72013652e-09  1.80844922e-16  5.20417043e-17  -1.09515901e-03  -1.15763398e-03  -1.12547466e-03  -1.12547469e-03  -1.12547469e-03  -1.12547469e-03  6.24749751e-05  3.03156475e-05  3.03156795e-05  3.03156795e-05  3.03156795e-05  3.21592956e-05  3.20084475e-11  1.99493200e-17  4.33680869e-19
1.52466200e-01  -1.31811478e-07  1.61166409e-17  -6.47504448e-18  1.58473564e-18  3.60223695e-18  3.75749443e-18  1.31811478e-07  1.31811478e-07  1.31811478e-07  1.31811478e-07  1.31811478e-07  1.23591464e-17  1.02325389e-17  2.17275879e-18  1.55257474e-19  -1.07372550e-07  -1.81487455e-17  7.13059369e-18  -1.37242206e-18  -3.32151457e-18  -3.69541251e-18  1.07372550e-07  1.07372550e-07  1.07372550e-07  1.07372550e-07  1.07372550e-07  1.44533330e-17  1.08260062e-17  2.32299045e-18  3.73897946e-19  -2.44232472e-03  -3.08305105e-03  -2.46273006e-03  -2.46347828e-03  -2.46347828e-03  -2.46347828e-03  6.40726333e-04  2.04053441e-05  2.11535606e-05  2.11535578e-05  2.11535578e-05  6.19572775e-04  7.48213744e-07  2.78040785e-12  1.26634814e-16  3.71298218e-03  3.83980928e-03  3.80753927e-03  3.80754600e-03  3.80754600e-03  3.80754600e-03  1.26827100e-04  9.45570938e-05  9.45638205e-05  9.45638205e-05  9.45638205e-05  3.22632799e-05  6.72668317e-09  1.80844922e-16  5.20417043e-17  -1.09625870e-03  -1.15876173e-03  -1.12657107e-03  -1.12657111e-03  -1.12657111e-03  -1.12657111e-03  6.25030321e-05  3.03123754e-05  3.03124074e-05  3.03124074e-05  3.03124074e-05  3.21906247e-05  3.20396296e-11  1.99493200e-17  4.33680869e-19
1.54708350e-01  -1.28956224e-07  1.61323109e-17  -6.48134010e-18  1.58627646e-18  3.60573937e-18  3.76114780e-18  1.28956224e-07  1.28956224e-07  1.28956224e-07  1.28956224e-07  1.28956224e-07  1.23711631e-17  1.02424879e-17  2.17487134e-18  1.55408429e-19  -1.06441395e-07  -1.81663913e-17  7.13752669e-18  -1.37375645e-18  -3.32474404e-18  -3.69900552e-18  1.06441395e-07  1.06441395e-07  1.06441395e-07  1.06441395e-07  1.06441395e-07  1.44673858e-17  1.08365322e-17  2.32524907e-18  3.74261483e-19  -2.44478550e-03  -3.08604867e-03  -2.46512455e-03  -2.46587349e-03  -2.46587349e-03  -2.46587349e-03  6.41263166e-04  2.03390465e-05  2.10879905e-05  2.10879878e-05  2.10879878e-05  6.20175179e-04  7.48941224e-07  2.78311055e-12  1.27068495e-16  3.71670111e-03  3.84354268e-03  3.81124130e-03  3.81124803e-03  3.81124803e-03  3.81124803e-03  1.26841571e-04  9.45401884e-05  9.45469217e-05  9.45469217e-05  9.45469217e-05  3.22946491e-05  6.73322345e-09  1.81278603e-16  5.24753851e-17  -1.09735736e-03  -1.15988838e-03  -1.12766643e-03  -1.12766646e-03  -1.12766646e-03  -1.12766646e-03  6.25310241e-05  3.03090688e-05  3.03091008e-05  3.03091008e-05  3.03091008e-05  3.22219233e-05  3.20707811e-11  2.01661604e-17  6.50521303e-19
1.56950500e-01  -1.25909525e-07  1.61479657e-17  -6.48762960e-18  1.58781578e-18  3.60923839e-18  3.76479762e-18  1.25909525e-07  1.25909525e-07  1.25909525e-07  1.25909525e-07  1.25909525e-07  1.23831681e-17  1.02524272e-17  2.17698184e-18  1.55559238e-19  -1.05383397e-07  -1.81840200e-17  7.14445296e-18  -1.37508955e-18  -3.32797038e-18  -3.70259505e-18  1.05383397e-07  1.05383397e-07  1.05383397e-07  1.05383397e-07  1.05383397e-07  1.44814250e-17  1.08470480e-17  2.32750550e-18  3.74624667e-19  -2.44724427e-03  -3.08904338e-03  -2.46751671e-03  -2.46826638e-03  -2.46826638e-03  -2.46826638e-03  6.41799104e-04  2.02724385e-05  2.10221093e-05  2.10221065e-05  2.10221065e-05  6.20776998e-04  7.49667998e-07  2.78581151e-12  1.26634814e-16  3.72041686e-03  3.84727246e-03  3.81493973e-03  3.81494647e-03  3.81494647e-03  3.81494647e-03  1.26855602e-04  9.45228746e-05  9.45296143e-05  9.45296143e-05  9.45296143e-05  3.23259879e-05  6.73975738e-09  1.81278603e-16  5.20417043e-17  -1.09845499e-03  -1.16101394e-03  -1.12876072e-03  -1.12876075e-03  -1.12876075e-03  -1.12876075e-03  6.25589530e-05  3.03057294e-05  3.03057615e-05  3.03057615e-05  3.03057615e-05  3.22531915e-05  3.21019027e-11  2.01661604e-17  4.33680869e-19
1.59192650e-01  -1.22669284e-07  1.61636054e-17  -6.49391302e-18  1.58935362e-18  3.61273401e-18  3.76844391e-18  1.22669284e-07  1.22669284e-07  1.22669284e-07  1.22669284e-07  1.22669284e-07  1.23951615e-17  1.02623569e-17  2.17909030e-18  1.55709900e-19  -1.04196425e-07  -1.82016316e-17  7.15137253e-18  -1.37642135e-18  -3.33119359e-18  -3.70618109e-18  1.04196425e-07  1.04196425e-07  1.04196425e-07  1.04196425e-07  1.04196425e-07  1.44954505e-17  1.08575536e-17  2.32975974e-18  3.74987499e-19  -2.44970103e-03  -3.09203519e-03  -2.46990656e-03  -2.47065695e-03  -2.47065695e-03  -2.47065695e-03  6.42334156e-04  2.02055278e-05  2.09559246e-05  2.09559218e-05  2.09559218e-05  6.21378234e-04  7.50394069e-07  2.78850987e-12  1.27068495e-16  3.72412944e-03  3.85099863e-03  3.81863459e-03  3.81864133e-03  3.81864133e-03  3.81864133e-03  1.26869192e-04  9.45051495e-05  9.45118958e-05  9.45118958e-05  9.45118958e-05  3.23572963e-05  6.74628499e-09  1.81712284e-16  5.24753851e-17  -1.09955159e-03  -1.16213841e-03  -1.12985395e-03  -1.12985398e-03  -1.12985398e-03  -1.12985398e-03  6.25868208e-05  3.03023593e-05  3.03023914e-05  3.03023914e-05  3.03023914e-05  3.22844294e-05  3.21329942e-11  2.01661604e-17  4.33680869e-19
1.61434800e-01  -1.19233412e-07  1.61792299e-17  -6.50019036e-18  1.59088997e-18  3.61622626e-18  3.77208668e-18  1.19233412e-07  1.19233412e-07  1.19233412e-07  1.19233412e-07  1.19233412e-07  1.24071432e-17  1.02722770e-17  2.18119671e-18  1.55860417e-19  -1.02878358e-07  -1.82192262e-17  7.15828540e-18  -1.37775187e-18  -3.33441369e-18  -3.70976367e-18  1.02878358e-07  1.02878358e-07  1.02878358e-07  1.02878358e-07  1.02878358e-07  1.45094626e-17  1.08680491e-17  2.33201180e-18  3.75349981e-19  -2.45215577e-03  -3.09502410e-03  -2.47229409e-03  -2.47304521e-03  -2.47304521e-03  -2.47304521e-03  6.42868331e-04  2.01383222e-05  2.08894445e-05  2.08894417e-05  2.08894417e-05  6.21978889e-04  7.51119437e-07  2.79120520e-12  1.27068495e-16  3.72783886e-03  3.85472120e-03  3.82232587e-03  3.82233262e-03  3.82233262e-03  3.82233262e-03  1.26882338e-04  9.44870108e-05  9.44937636e-05  9.44937636e-05  9.44937636e-05  3.23885745e-05  6.75280628e-09  1.82145965e-16  5.24753851e-17  -1.10064716e-03  -1.16326179e-03  -1.13094612e-03  -1.13094615e-03  -1.13094615e-03  -1.13094615e-03  6.26146294e-05  3.02989601e-05  3.02989923e-05  3.02989923e-05  3.02989923e-05  3.23156372e-05  3.21640557e-11  2.01661604e-17  4.33680869e-19
1.63676950e-01  -1.15599830e-07  1.61948394e-17  -6.50646164e-18  1.59242483e-18  3.61971514e-18  3.77572593e-18  1.15599830e-07  1.15599830e-07  1.15599830e-07  1.15599830e-07  1.15599830e-07  1.24191135e-17  1.02821876e-17  2.18330110e-18  1.56010789e-19  -1.01427084e-07  -1.82368039e-17  7.16519160e-18  -1.37908110e-18  -3.33763068e-18  -3.71334279e-18  1.01427084e-07  1.01427084e-07  1.01427084e-07  1.01427084e-07  1.01427084e-07  1.45234611e-17  1.08785344e-17  2.33426169e-18  3.75712113e-19  -2.45460849e-03  -3.09801013e-03  -2.47467932e-03  -2.47543117e-03  -2.47543117e-03  -2.47543117e-03  6.43401639e-04  2.00708297e-05  2.08226766e-05  2.08226738e-05  2.08226738e-05  6.22578965e-04  7.51844105e-07  2.79389793e-12  1.27068495e-16  3.73154514e-03  3.85844017e-03  3.82601359e-03  3.82602035e-03  3.82602035e-03  3.82602035e-03  1.26895037e-04  9.44684556e-05  9.44752149e-05  9.44752149e-05  9.44752149e-05  3.24198225e-05  6.75932129e-09  1.81712284e-16  5.20417043e-17  -1.10174171e-03  -1.16438409e-03  -1.13203724e-03  -1.13203727e-03  -1.13203727e-03  -1.13203727e-03  6.26423808e-05  3.02955338e-05  3.02955660e-05  3.02955660e-05  3.02955660e-05  3.23468148e-05  3.21950871e-11  2.01661604e-17  4.33680869e-19
1.65919100e-01  -1.11766466e-07  1.62104338e-17  -6.51272689e-18  1.59395822e-18  3.62320066e-18  3.77936168e-18  1.11766466e-07  1.11766466e-07  1.11766466e-07  1.11766466e-07  1.11766466e-07  1.24310722e-17  1.02920886e-17  2.18540346e-18  1.56161016e-19  -9.98405023e-08  -1.82543646e-17  7.17209116e-18  -1.38040906e-18  -3.34084457e-18  -3.71691847e-18  9.98405023e-08  9.98405023e-08  9.98405023e-08  9.98405023e-08  9.98405023e-08  1.45374461e-17  1.08890096e-17  2.33650941e-18  3.76073896e-19  -2.45705920e-03  -3.10099329e-03  -2.47706226e-03  -2.47781483e-03  -2.47781483e-03  -2.47781483e-03  6.43934089e-04  2.00030578e-05  2.07556286e-05  2.07556258e-05  2.07556258e-05  6.23178463e-04  7.52568076e-07  2.79658848e-12  1.27502175e-16  3.73524828e-03  3.86215557e-03  3.82969776e-03  3.82970453e-03  3.82970453e-03  3.82970453e-03  1.26907288e-04  9.44494815e-05  9.44562473e-05  9.44562473e-05  9.44562473e-05  3.24510404e-05  6.76583002e-09  1.82145965e-16  5.24753851e-17  -1.10283523e-03  -1.16550530e-03  -1.13312731e-03  -1.13312734e-03  -1.13312734e-03  -1.13312734e-03  6.26700768e-05  3.02920821e-05  3.02921144e-05  3.02921144e-05  3.02921144e-05  3.23779624e-05  3.22260883e-11  2.01661604e-17  6.50521303e-19
1.68161250e-01  -1.07731257e-07  1.62260133e-17  -6.51898611e-18  1.59549013e-18  3.62668283e-18  3.78299393e-18  1.07731257e-07  1.07731257e-07  1.07731257e-07  1.07731257e-07  1.07731257e-07  1.24430194e-17  1.03019800e-17  2.18750380e-18  1.56311098e-19  -9.81165209e-08  -1.82719084e-17  7.17898408e-18  -1.38173574e-18  -3.34405538e-18  -3.72049071e-18  9.81165209e-08  9.81165209e-08  9.81165209e-08  9.81165209e-08  9.81165209e-08  1.45514177e-17  1.08994748e-17  2.33875498e-18  3.76435331e-19  -2.45950789e-03  -3.10397358e-03  -2.47944290e-03  -2.48019620e-03  -2.48019619e-03  -2.48019619e-03  6.44465690e-04  1.99350142e-05  2.06883084e-05  2.06883056e-05  2.06883056e-05  6.23777385e-04  7.53291351e-07  2.79927644e-12  1.27502175e-16  3.73894831e-03  3.86586739e-03  3.83337839e-03  3.83338516e-03  3.83338516e-03  3.83338516e-03  1.26919086e-04  9.44300858e-05  9.44368581e-05  9.44368581e-05  9.44368581e-05  3.24822283e-05  6.77233249e-09  1.82579646e-16  5.24753851e-17  -1.10392772e-03  -1.16662544e-03  -1.13421633e-03  -1.13421636e-03  -1.13421636e-03  -1.13421636e-03  6.26977193e-05  3.02886070e-05  3.02886393e-05  3.02886393e-05  3.02886393e-05  3.24090801e-05  3.22570601e-11  2.01661604e-17  6.50521303e-19
1.70403400e-01  -1.03492147e-07  1.62415778e-17  -6.52523933e-18  1.59702058e-18  3.63016166e-18  3.78662270e-18  1.03492147e-07  1.03492147e-07  1.03492147e-07  1.03492147e-07  1.03492147e-07  1.24549551e-17  1.03118620e-17  2.18960212e-18  1.56461037e-19  -9.62530578e-08  -1.82894354e-17  7.18587039e-18  -1.38306114e-18  -3.34726310e-18  -3.72405952e-18  9.62530578e-08  9.62530578e-08  9.62530578e-08  9.62530578e-08  9.62530578e-08  1.45653759e-17  1.09099299e-17  2.34099838e-18  3.76796420e-19  -2.46195456e-03  -3.10695101e-03  -2.48182126e-03  -2.48257528e-03  -2.48257528e-03  -2.48257528e-03  6.44996453e-04  1.98667067e-05  2.06207234e-05  2.06207206e-05  2.06207206e-05  6.24375732e-04  7.54013932e-07  2.80196135e-12  1.27502175e-16  3.74264523e-03  3.86957566e-03  3.83705549e-03  3.83706227e-03  3.83706227e-03  3.83706227e-03  1.26930431e-04  9.44102660e-05  9.44170448e-05  9.44170448e-05  9.44170448e-05  3.25133863e-05  6.77882873e-09  1.82145965e-16  5.24753851e-17  -1.10501920e-03  -1.16774451e-03  -1.13530431e-03  -1.13530434e-03  -1.13530434e-03  -1.13530434e-03  6.27253104e-05  3.02851102e-05  3.02851425e-05  3.02851425e-05  3.02851425e-05  3.24401679e-05  3.22880023e-11  2.01661604e-17  4.33680869e-19
1.72645550e-01  -9.90470881e-08  1.62571274e-17  -6.53148656e-18  1.59854956e-18  3.63363716e-18  3.79024799e-18  9.90470881e-08  9.90470881e-08  9.90470881e-08  9.90470881e-08  9.90470881e-08  1.24668794e-17  1.03217346e-17  2.19169843e-18  1.56610832e-19  -9.42480400e-08  -1.83069456e-17  7.19275011e-18  -1.38438528e-18  -3.35046776e-18  -3.72762492e-18  9.42480400e-08  9.42480400e-08  9.42480400e-08  9.42480400e-08  9.42480400e-08  1.45793207e-17  1.09203750e-17  2.34323964e-18  3.77157163e-19  -2.46439920e-03  -3.10992559e-03  -2.48419735e-03  -2.48495209e-03  -2.48495208e-03  -2.48495208e-03  6.45526385e-04  1.97981428e-05  2.05528814e-05  2.05528786e-05  2.05528786e-05  6.24973506e-04  7.54735822e-07  2.80464367e-12  1.27935856e-16  3.74633905e-03  3.87328037e-03  3.84072907e-03  3.84073585e-03  3.84073585e-03  3.84073585e-03  1.26941319e-04  9.43900195e-05  9.43968048e-05  9.43968048e-05  9.43968048e-05  3.25445145e-05  6.78531875e-09  1.82579646e-16  5.24753851e-17  -1.10610965e-03  -1.16886250e-03  -1.13639124e-03  -1.13639127e-03  -1.13639127e-03  -1.13639127e-03  6.27528517e-05  3.02815934e-05  3.02816258e-05  3.02816258e-05  3.02816258e-05  3.24712260e-05  3.23189147e-11  2.01661604e-17  4.33680869e-19
1.74887700e-01  -9.43940415e-08  1.62726622e-17  -6.53772782e-18  1.60007708e-18  3.63710934e-18  3.79386982e-18  9.43940416e-08  9.43940415e-08  9.43940415e-08  9.43940415e-08  9.43940415e-08  1.24787923e-17  1.03315976e-17  2.19379275e-18  1.56760484e-19  -9.20994042e-08  -1.83244391e-17  7.19962325e-18  -1.38570815e-18  -3.35366935e-18  -3.73118691e-18  9.20994042e-08  9.20994042e-08  9.20994042e-08  9.20994042e-08  9.20994042e-08  1.45932522e-17  1.09308102e-17  2.34547876e-18  3.77517562e-19  -2.46684183e-03  -3.11289733e-03  -2.48657116e-03  -2.48732662e-03  -2.48732662e-03  -2.48732662e-03  6.46055496e-04  1.97293300e-05  2.04847898e-05  2.04847870e-05  2.04847870e-05  6.25570709e-04  7.55457021e-07  2.80732382e-12  1.27935856e-16  3.75002979e-03  3.87698154e-03  3.84439914e-03  3.84440593e-03  3.84440593e-03  3.84440593e-03  1.26951748e-04  9.43693437e-05  9.43761355e-05  9.43761355e-05  9.43761355e-05  3.25756129e-05  6.79180256e-09  1.82579646e-16  5.24753851e-17  -1.10719908e-03  -1.16997942e-03  -1.13747714e-03  -1.13747717e-03  -1.13747717e-03  -1.13747717e-03  6.27803453e-05  3.02780586e-05  3.02780910e-05  3.02780910e-05  3.02780910e-05  3.25022544e-05  3.23497973e-11  2.03830008e-17  6.50521303e-19
1.77129850e-01  -8.95309758e-08  1.62881821e-17  -6.54396314e-18  1.60160314e-18  3.64057821e-18  3.79748820e-18  8.95309758e-08  8.95309758e-08  8.95309758e-08  8.95309758e-08  8.95309758e-08  1.24906939e-17  1.03414513e-17  2.19588506e-18  1.56909993e-19  -8.98050967e-08  -1.83419159e-17  7.20648984e-18  -1.38702976e-18  -3.35686789e-18  -3.73474550e-18  8.98050967e-08  8.98050967e-08  8.98050967e-08  8.98050967e-08  8.98050967e-08  1.46071704e-17  1.09412353e-17  2.34771575e-18  3.77877616e-19  -2.46928243e-03  -3.11586623e-03  -2.48894271e-03  -2.48969889e-03  -2.48969889e-03  -2.48969889e-03  6.46583796e-04  1.96602759e-05  2.04164563e-05  2.04164535e-05  2.04164535e-05  6.26167343e-04  7.56177533e-07  2.81000136e-12  1.27935856e-16  3.75371747e-03  3.88067919e-03  3.84806571e-03  3.84807250e-03  3.84807250e-03  3.84807250e-03  1.26961716e-04  9.43482362e-05  9.43550345e-05  9.43550345e-05  9.43550345e-05  3.26066816e-05  6.79828020e-09  1.83013327e-16  5.29090660e-17  -1.10828749e-03  -1.17109528e-03  -1.13856200e-03  -1.13856203e-03  -1.13856203e-03  -1.13856203e-03  6.28077931e-05  3.02745075e-05  3.02745399e-05  3.02745399e-05  3.02745399e-05  3.25332531e-05  3.23806509e-11  2.01661604e-17  4.33680869e-19
1.79372000e-01  -8.44558674e-08  1.63036873e-17  -6.55019251e-18  1.60312775e-18  3.64404377e-18  3.80110313e-18  8.44558675e-08  8.44558674e-08  8.44558674e-08  8.44558674e-08  8.44558674e-08  1.25025841e-17  1.03512956e-17  2.19797538e-18  1.57059360e-19  -8.73630730e-08  -1.83593761e-17  7.21334989e-18  -1.38835011e-18  -3.36006338e-18  -3.73830071e-18  8.73630730e-08  8.73630730e-08  8.73630730e-08  8.73630730e-08  8.73630730e-08  1.46210754e-17  1.09516506e-17  2.34995060e-18  3.78237328e-19  -2.47172101e-03  -3.11883231e-03  -2.49131200e-03  -2.49206890e-03  -2.49206890e-03  -2.49206890e-03  6.47111294e-04  1.95909880e-05  2.03478882e-05  2.03478854e-05  2.03478854e-05  6.26763408e-04  7.56897358e-07  2.81267631e-12  1.28369537e-16  3.75740209e-03  3.88437331e-03  3.85172878e-03  3.85173559e-03  3.85173559e-03  3.85173559e-03  1.26971220e-04  9.43266945e-05  9.43334992e-05  9.43334992e-05  9.43334992e-05  3.26377208e-05  6.80475166e-09  1.83013327e-16  5.24753851e-17  -1.10937488e-03  -1.17221008e-03  -1.13964583e-03  -1.13964586e-03  -1.13964586e-03  -1.13964586e-03  6.28351967e-05  3.02709419e-05  3.02709743e-05  3.02709743e-05  3.02709743e-05  3.25642224e-05  3.24114748e-11  2.03830008e-17  4.33680869e-19
1.81614150e-01  -7.91667009e-08  1.63191777e-17  -6.55641597e-18  1.60465091e-18  3.64750604e-18  3.80471463e-18  7.91667009e-08  7.91667009e-08  7.91667009e-08  7.91667009e-08  7.91667009e-08  1.25144631e-17  1.03611306e-17  2.20006372e-18  1.57208585e-19  -8.47712981e-08  -1.83768196e-17  7.22020343e-18  -1.38966920e-18  -3.36325584e-18  -3.74185254e-18  8.47712980e-08  8.47712981e-08  8.47712981e-08  8.47712981e-08  8.47712981e-08  1.46349671e-17  1.09620560e-17  2.35218333e-18  3.78596698e-19  -2.47415757e-03  -3.12179557e-03  -2.49367904e-03  -2.49443666e-03  -2.49443666e-03  -2.49443666e-03  6.47637998e-04  1.95214737e-05  2.02790930e-05  2.02790902e-05  2.02790902e-05  6.27358908e-04  7.57616500e-07  2.81534865e-12  1.28369537e-16  3.76108366e-03  3.88806392e-03  3.85538838e-03  3.85539519e-03  3.85539519e-03  3.85539519e-03  1.26980258e-04  9.43047159e-05  9.43115271e-05  9.43115271e-05  9.43115271e-05  3.26687305e-05  6.81121698e-09  1.83447008e-16  5.29090660e-17  -1.11046126e-03  -1.17332382e-03  -1.14072862e-03  -1.14072866e-03  -1.14072866e-03  -1.14072866e-03  6.28625582e-05  3.02673635e-05  3.02673960e-05  3.02673960e-05  3.02673960e-05  3.25951623e-05  3.24422696e-11  2.01661604e-17  4.33680869e-19
1.83856300e-01  -7.36614686e-08  1.63346534e-17  -6.56263352e-18  1.60617263e-18  3.65096503e-18  3.80832270e-18  7.36614686e-08  7.36614686e-08  7.36614686e-08  7.36614686e-08  7.36614686e-08  1.25263307e-17  1.03709562e-17  2.20215007e-18  1.57357668e-19  -8.20277459e-08  -1.83942467e-17  7.22705046e-18  -1.39098705e-18  -3.36644527e-18  -3.74540099e-18  8.20277459e-08  8.20277459e-08  8.20277459e-08  8.20277459e-08  8.20277459e-08  1.46488457e-17  1.09724515e-17  2.35441394e-18  3.78955728e-19  -2.47659210e-03  -3.12475601e-03  -2.49604384e-03  -2.49680218e-03  -2.49680217e-03  -2.49680217e-03  6.48163918e-04  1.94517403e-05  2.02100781e-05  2.02100753e-05  2.02100753e-05  6.27953842e-04  7.58334960e-07  2.81801839e-12  1.28369537e-16  3.76476221e-03  3.89175104e-03  3.85904451e-03  3.85905132e-03  3.85905132e-03  3.85905132e-03  1.26988827e-04  9.42822981e-05  9.42891158e-05  9.42891158e-05  9.42891158e-05  3.26997108e-05  6.81767617e-09  1.83447008e-16  5.29090660e-17  -1.11154662e-03  -1.17443650e-03  -1.14181040e-03  -1.14181043e-03  -1.14181043e-03  -1.14181043e-03  6.28898794e-05  3.02637741e-05  3.02638066e-05  3.02638066e-05  3.02638066e-05  3.26260728e-05  3.24730351e-11  2.03830008e-17  6.50521303e-19
1.86098450e-01  -6.79381707e-08  1.63501145e-17  -6.56884519e-18  1.60769290e-18  3.65442075e-18  3.81192736e-18  6.79381707e-08  6.79381707e-08  6.79381707e-08  6.79381707e-08  6.79381707e-08  1.25381872e-17  1.03807725e-17  2.20423445e-18  1.57506611e-19  -7.91303999e-08  -1.84116572e-17  7.23389102e-18  -1.39230365e-18  -3.36963168e-18  -3.74894609e-18  7.91303998e-08  7.91303999e-08  7.91303999e-08  7.91303999e-08  7.91303999e-08  1.46627111e-17  1.09828371e-17  2.35664245e-18  3.79314417e-19  -2.47902460e-03  -3.12771366e-03  -2.49840639e-03  -2.49916545e-03  -2.49916545e-03  -2.49916545e-03  6.48689062e-04  1.93817952e-05  2.01408508e-05  2.01408480e-05  2.01408480e-05  6.28548214e-04  7.59052740e-07  2.82068596e-12  1.28803218e-16  3.76843773e-03  3.89543466e-03  3.86269717e-03  3.86270400e-03  3.86270400e-03  3.86270400e-03  1.26996924e-04  9.42594385e-05  9.42662627e-05  9.42662627e-05  9.42662627e-05  3.27306618e-05  6.82412924e-09  1.83880688e-16  5.29090660e-17  -1.11263097e-03  -1.17554813e-03  -1.14289114e-03  -1.14289117e-03  -1.14289117e-03  -1.14289117e-03  6.29171621e-05  3.02601755e-05  3.02602080e-05  3.02602080e-05  3.02602080e-05  3.26569541e-05  3.25037714e-11  2.03830008e-17  6.50521303e-19
1.88340600e-01  -6.19948154e-08  1.63655610e-17  -6.57505099e-18  1.60921174e-18  3.65787320e-18  3.81552861e-18  6.19948154e-08  6.19948154e-08  6.19948154e-08  6.19948154e-08  6.19948154e-08  1.25500324e-17  1.03905796e-17  2.20631687e-18  1.57655412e-19  -7.60772524e-08  -1.84290513e-17  7.24072511e-18  -1.39361900e-18  -3.37281508e-18  -3.75248785e-18  7.60772524e-08  7.60772525e-08  7.60772524e-08  7.60772524e-08  7.60772524e-08  1.46765635e-17  1.09932130e-17  2.35886884e-18  3.79672768e-19  -2.48145507e-03  -3.13066851e-03  -2.50076672e-03  -2.50152649e-03  -2.50152649e-03  -2.50152649e-03  6.49213439e-04  1.93116458e-05  2.00714185e-05  2.00714157e-05  2.00714157e-05  6.29142024e-04  7.59769842e-07  2.82335049e-12  1.28803218e-16  3.77211025e-03  3.89911480e-03  3.86634639e-03  3.86635322e-03  3.86635322e-03  3.86635322e-03  1.27004549e-04  9.42361348e-05  9.42429654e-05  9.42429654e-05  9.42429654e-05  3.27615835e-05  6.83057622e-09  1.83880688e-16  5.29090660e-17  -1.11371430e-03  -1.17665871e-03  -1.14397087e-03  -1.14397090e-03  -1.14397090e-03  -1.14397090e-03  6.29444081e-05  3.02565694e-05  3.02566019e-05  3.02566019e-05  3.02566019e-05  3.26878061e-05  3.25344788e-11  2.03830008e-17  4.33680869e-19
1.90582750e-01  -5.58294185e-08  1.63809929e-17  -6.58125094e-18  1.61072915e-18  3.66132239e-18  3.81912646e-18  5.58294185e-08  5.58294185e-08  5.58294185e-08  5.58294185e-08  5.58294185e-08  1.25618664e-17  1.04003774e-17  2.20839731e-18  1.57804074e-19  -7.28663054e-08  -1.84464290e-17  7.24755275e-18  -1.39493312e-18  -3.37599548e-18  -3.75602626e-18  7.28663054e-08  7.28663054e-08  7.28663054e-08  7.28663054e-08  7.28663054e-08  1.46904027e-17  1.10035790e-17  2.36109314e-18  3.80030781e-19  -2.48388352e-03  -3.13362058e-03  -2.50312482e-03  -2.50388531e-03  -2.50388531e-03  -2.50388531e-03  6.49737059e-04  1.92412993e-05  2.00017884e-05  2.00017856e-05  2.00017856e-05  6.29735274e-04  7.60486267e-07  2.82601286e-12  1.28803218e-16  3.77577978e-03  3.90279148e-03  3.86999216e-03  3.86999900e-03  3.86999900e-03  3.86999900e-03  1.27011697e-04  9.42123844e-05  9.42192214e-05  9.42192214e-05  9.42192214e-05  3.27924760e-05  6.83701711e-09  1.83880688e-16  5.29090660e-17  -1.11479662e-03  -1.17776824e-03  -1.14504958e-03  -1.14504961e-03  -1.14504961e-03  -1.14504961e-03  6.29716193e-05  3.02529576e-05  3.02529901e-05  3.02529901e-05  3.02529901e-05  3.27186291e-05  3.25651574e-11  2.01661604e-17  4.33680869e-19
1.92824900e-01  -4.94400036e-08  1.63964103e-17  -6.58744506e-18  1.61224513e-18  3.66476834e-18  3.82272093e-18  4.94400037e-08  4.94400036e-08  4.94400036e-08  4.94400036e-08  4.94400036e-08  1.25736894e-17  1.04101660e-17  2.21047580e-18  1.57952595e-19  -6.94955694e-08  -1.84637903e-17  7.25437398e-18  -1.39624599e-18  -3.37917288e-18  -3.75956134e-18  6.94955693e-08  6.94955694e-08  6.94955694e-08  6.94955694e-08  6.94955694e-08  1.47042290e-17  1.10139353e-17  2.36331534e-18  3.80388456e-19  -2.48630994e-03  -3.13656987e-03  -2.50548070e-03  -2.50624191e-03  -2.50624190e-03  -2.50624190e-03  6.50259930e-04  1.91707629e-05  1.99319677e-05  1.99319649e-05  1.99319649e-05  6.30327965e-04  7.61202019e-07  2.82867263e-12  1.28803218e-16  3.77944632e-03  3.90646469e-03  3.87363451e-03  3.87364135e-03  3.87364135e-03  3.87364135e-03  1.27018368e-04  9.41881848e-05  9.41950283e-05  9.41950283e-05  9.41950283e-05  3.28233395e-05  6.84345195e-09  1.84314369e-16  5.29090660e-17  -1.11587793e-03  -1.17887673e-03  -1.14612727e-03  -1.14612730e-03  -1.14612730e-03  -1.14612730e-03  6.29987974e-05  3.02493417e-05  3.02493743e-05  3.02493743e-05  3.02493743e-05  3.27494231e-05  3.25958069e-11  2.03830008e-17  4.33680869e-19
1.95067050e-01  -4.28246021e-08  1.64118132e-17  -6.59363335e-18  1.61375968e-18  3.66821105e-18  3.82631203e-18  4.28246021e-08  4.28246021e-08  4.28246021e-08  4.28246021e-08  4.28246021e-08  1.25855012e-17  1.04199454e-17  2.21255234e-18  1.58100977e-19  -6.59630641e-08  -1.84811353e-17  7.26118879e-18  -1.39755764e-18  -3.38234730e-18  -3.76309310e-18  6.59630641e-08  6.59630641e-08  6.59630641e-08  6.59630641e-08  6.59630641e-08  1.47180422e-17  1.10242819e-17  2.36553546e-18  3.80745796e-19  -2.48873432e-03  -3.13951639e-03  -2.50783437e-03  -2.50859629e-03  -2.50859629e-03  -2.50859629e-03  6.50782061e-04  1.91000437e-05  1.98619637e-05  1.98619608e-05  1.98619608e-05  6.30920100e-04  7.61917098e-07  2.83132979e-12  1.29236899e-16  3.78310989e-03  3.91013445e-03  3.87727343e-03  3.87728028e-03  3.87728028e-03  3.87728028e-03  1.27024558e-04  9.41635338e-05  9.41703837e-05  9.41703837e-05  9.41703837e-05  3.28541740e-05  6.84988074e-09  1.84314369e-16  5.29090660e-17  -1.11695823e-03  -1.17998417e-03  -1.14720395e-03  -1.14720398e-03  -1.14720398e-03  -1.14720398e-03  6.30259443e-05  3.02457235e-05  3.02457561e-05  3.02457561e-05  3.02457561e-05  3.27801882e-05  3.26264276e-11  2.03830008e-17  4.33680869e-19
1.97309200e-01  -3.59812529e-08  1.64272017e-17  -6.59981584e-18  1.61527282e-18  3.67165053e-18  3.82989975e-18  3.59812529e-08  3.59812529e-08  3.59812529e-08  3.59812529e-08  3.59812529e-08  1.25973019e-17  1.04297156e-17  2.21462693e-18  1.58249220e-19  -6.22668182e-08  -1.84984641e-17  7.26799721e-18  -1.39886805e-18  -3.38551875e-18  -3.76662155e-18  6.22668182e-08  6.22668182e-08  6.22668182e-08  6.22668182e-08  6.22668182e-08  1.47318426e-17  1.10346188e-17  2.36775349e-18  3.81102801e-19  -2.49115668e-03  -3.14246014e-03  -2.51018583e-03  -2.51094846e-03  -2.51094846e-03  -2.51094846e-03  6.51303460e-04  1.90291491e-05  1.97917834e-05  1.97917806e-05  1.97917806e-05  6.31511680e-04  7.62631506e-07  2.83398478e-12  1.28803218e-16  3.78677051e-03  3.91380077e-03  3.88090894e-03  3.88091579e-03  3.88091579e-03  3.88091579e-03  1.27030265e-04  9.41384288e-05  9.41452851e-05  9.41452851e-05  9.41452851e-05  3.28849796e-05  6.85630350e-09  1.84314369e-16  5.29090660e-17  -1.11803752e-03  -1.18109058e-03  -1.14827962e-03  -1.14827965e-03  -1.14827965e-03  -1.14827965e-03  6.30530617e-05  3.02421047e-05  3.02421374e-05  3.02421374e-05  3.02421374e-05  3.28109244e-05  3.26570197e-11  2.03830008e-17  4.33680869e-19
1.99551350e-01  -2.89080025e-08  1.64425758e-17  -6.60599255e-18  1.61678454e-18  3.67508680e-18  3.83348412e-18  2.89080025e-08  2.89080025e-08  2.89080025e-08  2.89080025e-08  2.89080025e-08  1.26090916e-17  1.04394767e-17  2.21669958e-18  1.58397324e-19  -5.84048693e-08  -1.85157766e-17  7.27479926e-18  -1.40017724e-18  -3.38868722e-18  -3.77014669e-18  5.84048693e-08  5.84048693e-08  5.84048693e-08  5.84048693e-08  5.84048693e-08  1.47456300e-17  1.10449460e-17  2.36996945e-18  3.81459471e-19  -2.49357700e-03  -3.14540114e-03  -2.51253509e-03  -2.51329844e-03  -2.51329843e-03  -2.51329843e-03  6.51824137e-04  1.89580859e-05  1.97214340e-05  1.97214312e-05  1.97214312e-05  6.32102706e-04  7.63345246e-07  2.83663718e-12  1.28803218e-16  3.79042818e-03  3.91746366e-03  3.88454104e-03  3.88454791e-03  3.88454791e-03  3.88454791e-03  1.27035487e-04  9.41128675e-05  9.41197303e-05  9.41197303e-05  9.41197303e-05  3.29157563e-05  6.86272025e-09  1.84748050e-16  5.33427469e-17  -1.11911580e-03  -1.18219595e-03  -1.14935429e-03  -1.14935432e-03  -1.14935432e-03  -1.14935432e-03  6.30801515e-05  3.02384870e-05  3.02385197e-05  3.02385197e-05  3.02385197e-05  3.28416318e-05  3.26875829e-11  2.05998413e-17  6.50521303e-19
